F540,,
Wavelength (nm),%T,
2500,0.525557518,
2499,0.4533755481,
2498,0.5600196123,
2497,0.6903592348,
2496,0.4902935624,
2495,0.5000851154,
2494,0.4606877565,
2493,0.5558958054,
2492,0.7463197112,
2491,0.4527067244,
2490,0.5470361114,
2489,0.6466140747,
2488,0.3908264935,
2487,0.1477858275,
2486,0.3289016187,
2485,0.2700940967,
2484,0.6784082651,
2483,0.2002253681,
2482,0.6597186923,
2481,0.2567111254,
2480,0.6540130973,
2479,0.536596477,
2478,0.3867686689,
2477,0.3595787883,
2476,0.05956310779,
2475,0.3582274318,
2474,0.409312129,
2473,0.3023192286,
2472,0.4864774048,
2471,0.1771088094,
2470,0.07167111337,
2469,0.06349360943,
2468,0.08491133898,
2467,0.4701656401,
2466,0.08540600538,
2465,0.4782395959,
2464,0.4940787852,
2463,0.2645303011,
2462,0.2754514217,
2461,0.1549850106,
2460,0.2925928831,
2459,-0.02563220263,
2458,0.2148265988,
2457,0.3387484848,
2456,0.3904897571,
2455,0.1237977743,
2454,0.4339819252,
2453,0.5382608175,
2452,0.1570724249,
2451,0.2994683683,
2450,0.2459619194,
2449,0.07663340867,
2448,0.1630624235,
2447,0.2789137363,
2446,0.2556902468,
2445,-0.07733199745,
2444,0.03952078521,
2443,0.3507454097,
2442,0.07371399552,
2441,0.3377201855,
2440,0.09732153267,
2439,0.449403137,
2438,0.4503056407,
2437,0.3557919264,
2436,0.2022272199,
2435,0.2341895103,
2434,0.5202310085,
2433,0.2820631564,
2432,0.6410009265,
2431,0.404872328,
2430,0.4051031172,
2429,0.5090479851,
2428,-0.01368246321,
2427,0.4160884321,
2426,0.6844736338,
2425,0.5000844598,
2424,0.5388665199,
2423,0.4483899474,
2422,0.4811019599,
2421,0.5110158324,
2420,0.5379374027,
2419,0.6457461715,
2418,0.5985579491,
2417,0.6249639988,
2416,0.5772153139,
2415,0.7914382815,
2414,0.7895554304,
2413,0.6633860469,
2412,0.6482277513,
2411,0.7921717167,
2410,0.8089959621,
2409,0.6860889792,
2408,0.8219697475,
2407,0.6917889118,
2406,0.6394420266,
2405,0.8538478017,
2404,0.6097532511,
2403,0.7862039804,
2402,0.8177498579,
2401,0.6857198477,
2400,0.8214117289,
2399,0.6146944761,
2398,0.6608663201,
2397,0.7071276903,
2396,0.629768908,
2395,0.6648700833,
2394,0.7366906404,
2393,0.6181258559,
2392,0.6715874672,
2391,0.5206885934,
2390,0.6460288167,
2389,0.5871473551,
2388,0.5935014486,
2387,0.593511045,
2386,0.6048061848,
2385,0.567724824,
2384,0.4569065869,
2383,0.46951738,
2382,0.4575178027,
2381,0.4682484567,
2380,0.4913416207,
2379,0.4205139279,
2378,0.3956682086,
2377,0.4170998931,
2376,0.3996051848,
2375,0.3110124469,
2374,0.2913162112,
2373,0.3733574748,
2372,0.3358232081,
2371,0.2857602835,
2370,0.2505232692,
2369,0.2848311961,
2368,0.3543255329,
2367,0.2375307232,
2366,0.1989012808,
2365,-0.2633619905,
2364,0.5148971081,
2363,0.1986249983,
2362,0.1254798919,
2361,0.2344912887,
2360,0.1530975252,
2359,0.1828719825,
2358,0.230076164,
2357,0.1382872164,
2356,0.2171587944,
2355,0.1622763276,
2354,0.1010846347,
2353,0.1170412749,
2352,0.06328146905,
2351,-0.02479533665,
2350,0.1422099471,
2349,0.07885524631,
2348,0.05794987082,
2347,0.1182873026,
2346,0.1043278128,
2345,0.1404885352,
2344,0.1439511031,
2343,0.1082311869,
2342,0.09049966186,
2341,0.09081297368,
2340,0.1363602877,
2339,0.1445066184,
2338,0.1148574054,
2337,0.1099602059,
2336,0.09567270428,
2335,0.1269994229,
2334,0.09937933832,
2333,0.1649656147,
2332,0.1193663254,
2331,0.2072203606,
2330,0.1391980052,
2329,0.07545756549,
2328,0.1339128911,
2327,0.1657278687,
2326,0.1855076402,
2325,0.163284868,
2324,0.1122809723,
2323,0.2294052839,
2322,0.160728097,
2321,0.2188324034,
2320,0.1418109238,
2319,0.1338869035,
2318,0.1419295371,
2317,0.1644473523,
2316,0.2379840314,
2315,0.1543643475,
2314,0.1877935529,
2313,0.1957537085,
2312,0.1910427064,
2311,0.2254204601,
2310,0.1942727417,
2309,0.09527727962,
2308,0.2111928761,
2307,0.2109684348,
2306,0.1389601082,
2305,0.1846053004,
2304,0.1321057677,
2303,0.1819143742,
2302,0.186057061,
2301,0.09277208894,
2300,0.08926773071,
2299,0.09363879263,
2298,0.1418362856,
2297,0.1165467352,
2296,0.06483587623,
2295,-0.04349001125,
2294,0.1234945953,
2293,0.1413343251,
2292,0.1869819164,
2291,0.2472928017,
2290,0.1339532137,
2289,0.1554442644,
2288,0.1403653473,
2287,0.08115898073,
2286,0.1136339977,
2285,0.2490554452,
2284,0.1223612577,
2283,0.2896372974,
2282,0.09041054547,
2281,0.2414109707,
2280,0.106703721,
2279,0.1523322165,
2278,0.08405099809,
2277,0.1753595173,
2276,0.1713658869,
2275,0.08701534569,
2274,0.2281236202,
2273,0.3284526169,
2272,0.105735831,
2271,0.1846706271,
2270,0.2338818908,
2269,0.2976146936,
2268,0.4057823718,
2267,0.1272595972,
2266,-0.02324896306,
2265,0.1684631109,
2264,0.06117286906,
2263,0.1999815255,
2262,0.2349013984,
2261,0.3580659926,
2260,0.2983364761,
2259,0.5409559608,
2258,0.5662059188,
2257,0.3642913103,
2256,0.6178254485,
2255,0.696934402,
2254,0.6195855141,
2253,0.6372427344,
2252,0.6248978376,
2251,0.9361276627,
2250,0.9926694632,
2249,1.101033926,
2248,1.416604519,
2247,1.865379095,
2246,2.121249914,
2245,2.432607174,
2244,3.04955411,
2243,3.367986441,
2242,3.466514826,
2241,4.25438118,
2240,4.722858429,
2239,5.180175781,
2238,5.806322098,
2237,6.385941982,
2236,6.941919804,
2235,7.610137939,
2234,8.38640976,
2233,9.138991356,
2232,9.895493507,
2231,10.89434719,
2230,11.55688572,
2229,12.35123253,
2228,13.31441116,
2227,14.14295769,
2226,15.17502403,
2225,16.00959778,
2224,17.00568199,
2223,18.07971573,
2222,18.95479202,
2221,19.88981438,
2220,20.85064507,
2219,21.94793892,
2218,22.85383987,
2217,24.01525116,
2216,24.97797966,
2215,26.02207565,
2214,26.94996262,
2213,27.82448578,
2212,28.67148781,
2211,29.56846046,
2210,30.51285362,
2209,31.41631508,
2208,32.13327026,
2207,32.93437195,
2206,33.74738312,
2205,34.46676254,
2204,35.05994415,
2203,35.68571854,
2202,36.30408478,
2201,36.81561279,
2200,37.30848312,
2199,37.87837601,
2198,38.47745514,
2197,38.86813354,
2196,39.27626419,
2195,39.54740906,
2194,39.89906693,
2193,40.21392822,
2192,40.60417175,
2191,40.90256882,
2190,41.21358871,
2189,41.42775726,
2188,41.67152786,
2187,41.86332703,
2186,42.07715225,
2185,42.32303238,
2184,42.34357071,
2183,42.59877014,
2182,42.55398941,
2181,42.66589737,
2180,42.74328995,
2179,42.82680893,
2178,42.83943176,
2177,42.89319992,
2176,42.63570404,
2175,42.73908615,
2174,42.43719864,
2173,42.27339172,
2172,42.26314545,
2171,42.08592606,
2170,41.82126236,
2169,41.70949936,
2168,41.49454117,
2167,41.27986145,
2166,40.84875107,
2165,40.61452866,
2164,40.39696503,
2163,40.0669136,
2162,39.6631546,
2161,39.41648865,
2160,39.08797073,
2159,38.70707703,
2158,38.38282013,
2157,38.17887115,
2156,37.74076462,
2155,37.53360367,
2154,37.24335098,
2153,36.88508987,
2152,36.73099136,
2151,36.43172455,
2150,36.24892807,
2149,35.84972,
2148,35.57628632,
2147,35.48187256,
2146,35.39735413,
2145,34.93099976,
2144,34.75478745,
2143,34.4587059,
2142,34.31347275,
2141,33.87487411,
2140,33.79980469,
2139,33.28184128,
2138,33.07439423,
2137,32.68380356,
2136,32.3530159,
2135,32.05453873,
2134,31.70798683,
2133,31.31872749,
2132,30.88246346,
2131,30.61361313,
2130,30.15942001,
2129,29.9287014,
2128,29.58180046,
2127,29.19896889,
2126,28.89538383,
2125,28.64357758,
2124,28.46792412,
2123,28.16852379,
2122,28.0700531,
2121,27.96141815,
2120,27.88565826,
2119,27.93445587,
2118,27.97566414,
2117,28.09778976,
2116,28.23993301,
2115,28.55431366,
2114,28.69659615,
2113,29.20603371,
2112,29.60779381,
2111,30.06439209,
2110,30.52747917,
2109,31.0954895,
2108,31.79020309,
2107,32.51484299,
2106,33.0885849,
2105,33.97901535,
2104,34.7247963,
2103,35.41812515,
2102,36.15810776,
2101,37.16692352,
2100,37.91339493,
2099,38.79751587,
2098,39.7388916,
2097,40.52587509,
2096,41.37917709,
2095,42.33464813,
2094,43.00288391,
2093,43.97963715,
2092,44.6908226,
2091,45.36909103,
2090,45.94829178,
2089,46.67714691,
2088,47.34440613,
2087,47.88021851,
2086,48.48532867,
2085,48.90129852,
2084,49.39961243,
2083,49.78064728,
2082,50.13144684,
2081,50.53668213,
2080,50.78528976,
2079,51.28356171,
2078,51.50482559,
2077,51.65031052,
2076,51.83978271,
2075,52.01690674,
2074,52.13580322,
2073,52.29157639,
2072,52.41793823,
2071,52.55463791,
2070,52.63100815,
2069,52.69335556,
2068,52.82265091,
2067,52.90111923,
2066,52.94687271,
2065,53.12511444,
2064,53.16561508,
2063,53.157341,
2062,53.38929367,
2061,53.3837738,
2060,53.44632721,
2059,53.51703644,
2058,53.61676788,
2057,53.59019089,
2056,53.6663475,
2055,53.72685623,
2054,53.84175873,
2053,53.92466736,
2052,53.87391281,
2051,53.97053528,
2050,54.01261902,
2049,54.0913353,
2048,54.09032059,
2047,54.1225853,
2046,54.21006012,
2045,54.21317673,
2044,54.31595612,
2043,54.36676025,
2042,54.33592224,
2041,54.29150009,
2040,54.5703125,
2039,54.49105453,
2038,54.53527069,
2037,54.45889282,
2036,54.5826416,
2035,54.7228508,
2034,54.75445938,
2033,54.7659874,
2032,54.84009933,
2031,54.95445633,
2030,55.01415253,
2029,55.05840683,
2028,55.13916779,
2027,55.35812378,
2026,55.41156387,
2025,55.40692139,
2024,55.55517578,
2023,55.69393539,
2022,55.83612442,
2021,55.82847595,
2020,55.92789078,
2019,56.01153564,
2018,56.16403198,
2017,56.23804474,
2016,56.26744461,
2015,56.43725967,
2014,56.4261322,
2013,56.60800934,
2012,56.76965714,
2011,56.72587585,
2010,56.84723663,
2009,56.98900986,
2008,57.02415085,
2007,57.00081635,
2006,57.06270218,
2005,57.18580627,
2004,57.2023201,
2003,57.14015961,
2002,57.28913116,
2001,57.30849457,
2000,57.28612518,
1999,57.23214722,
1998,57.21894073,
1997,57.2926445,
1996,57.28777695,
1995,57.25894165,
1994,57.21982193,
1993,57.22120285,
1992,57.12808228,
1991,57.10571289,
1990,56.97041702,
1989,56.98784637,
1988,56.9279747,
1987,56.78448486,
1986,56.81049728,
1985,56.66405487,
1984,56.55794144,
1983,56.4208374,
1982,56.35472488,
1981,56.30581284,
1980,56.03856277,
1979,55.98899841,
1978,55.85334778,
1977,55.72247314,
1976,55.61811829,
1975,55.38734818,
1974,55.20075989,
1973,55.0620575,
1972,54.84302521,
1971,54.65836334,
1970,54.54768372,
1969,54.29726791,
1968,54.06068039,
1967,53.80104828,
1966,53.60005569,
1965,53.37593079,
1964,53.17213058,
1963,52.93878174,
1962,52.67582703,
1961,52.43907166,
1960,52.1835556,
1959,51.88901901,
1958,51.65099335,
1957,51.37223053,
1956,51.05447006,
1955,50.77009201,
1954,50.48610687,
1953,50.17138672,
1952,49.80391693,
1951,49.50009155,
1950,49.21541214,
1949,48.84822464,
1948,48.54870605,
1947,48.20299911,
1946,47.89018631,
1945,47.41353607,
1944,47.09285355,
1943,46.63072205,
1942,46.3964386,
1941,45.94546127,
1940,45.5439949,
1939,45.21748352,
1938,44.61146927,
1937,44.266922,
1936,43.73801804,
1935,43.47682953,
1934,42.95884323,
1933,42.43822479,
1932,41.94911575,
1931,41.38610077,
1930,40.92681885,
1929,40.38312912,
1928,39.98805618,
1927,39.33580017,
1926,38.71861267,
1925,38.08598709,
1924,37.56460571,
1923,36.96600342,
1922,36.23764801,
1921,35.69457245,
1920,34.99623108,
1919,34.48396301,
1918,33.84752655,
1917,33.27888489,
1916,32.63768387,
1915,32.26470184,
1914,31.82850266,
1913,31.51065445,
1912,31.56529999,
1911,31.00144196,
1910,30.8581295,
1909,30.81834412,
1908,30.91798973,
1907,31.16172028,
1906,31.44501114,
1905,31.85189438,
1904,32.18324661,
1903,32.73537827,
1902,33.46570206,
1901,34.21604919,
1900,35.08453369,
1899,36.02567673,
1898,36.89655304,
1897,37.86333466,
1896,38.75225067,
1895,39.86651611,
1894,40.82238007,
1893,41.7634201,
1892,42.84187698,
1891,43.75164032,
1890,44.67737198,
1889,45.62253571,
1888,46.48915482,
1887,47.24785233,
1886,48.0044632,
1885,48.75379562,
1884,49.42560959,
1883,50.02672577,
1882,50.60626984,
1881,51.24804306,
1880,51.52855682,
1879,52.09909821,
1878,52.48431015,
1877,52.79766464,
1876,53.18387222,
1875,53.43909454,
1874,53.68392563,
1873,53.8489418,
1872,54.10118866,
1871,54.2261467,
1870,54.35807037,
1869,54.45415878,
1868,54.49422073,
1867,54.55912399,
1866,54.615448,
1865,54.73178101,
1864,54.69977951,
1863,54.68869019,
1862,54.82949448,
1861,54.62700272,
1860,54.71595383,
1859,54.67784882,
1858,54.6428566,
1857,54.52098846,
1856,54.54811859,
1855,54.44889069,
1854,54.26522446,
1853,54.29917145,
1852,54.17980957,
1851,54.10380936,
1850,54.00436401,
1849,53.84159851,
1848,53.76642227,
1847,53.59634018,
1846,53.50639343,
1845,53.22638321,
1844,53.14647675,
1843,52.95560837,
1842,52.86273956,
1841,52.58460236,
1840,52.43971252,
1839,52.31186676,
1838,52.1253891,
1837,51.9042511,
1836,51.70405579,
1835,51.50385666,
1834,51.42395401,
1833,51.14957809,
1832,50.9699173,
1831,50.83359909,
1830,50.57733154,
1829,50.39073944,
1828,50.21572113,
1827,50.00294876,
1826,49.84764481,
1825,49.66489792,
1824,49.44141006,
1823,49.12643433,
1822,48.97167587,
1821,48.76686859,
1820,48.57202148,
1819,48.38805389,
1818,48.19817734,
1817,47.95446777,
1816,47.68089676,
1815,47.49295807,
1814,47.32680511,
1813,47.10357666,
1812,46.84651184,
1811,46.59789658,
1810,46.41584778,
1809,46.17224884,
1808,45.94855499,
1807,45.77395248,
1806,45.48238373,
1805,45.34344101,
1804,45.09896851,
1803,44.89829636,
1802,44.72443008,
1801,44.58452606,
1800,44.33398438,
1799,44.25876617,
1798,44.10996246,
1797,43.93736267,
1796,43.80068207,
1795,43.61418152,
1794,43.49892044,
1793,43.32284927,
1792,43.19046021,
1791,43.15680695,
1790,43.04450607,
1789,42.87047577,
1788,42.81970978,
1787,42.69496918,
1786,42.61390686,
1785,42.53184128,
1784,42.46432495,
1783,42.34102249,
1782,42.27467728,
1781,42.18815994,
1780,42.11216736,
1779,41.99455261,
1778,41.84650803,
1777,41.78303909,
1776,41.68001556,
1775,41.58197021,
1774,41.41283417,
1773,41.29005051,
1772,41.10522461,
1771,41.00540161,
1770,40.85160065,
1769,40.64542389,
1768,40.40632629,
1767,40.30369186,
1766,40.05866623,
1765,39.81244278,
1764,39.66325378,
1763,39.32116699,
1762,39.06882858,
1761,38.86449814,
1760,38.56917191,
1759,38.27781677,
1758,38.08521271,
1757,37.73815155,
1756,37.41687393,
1755,37.15945816,
1754,36.89052582,
1753,36.55958176,
1752,36.27607727,
1751,36.01114273,
1750,35.76621628,
1749,35.58272934,
1748,35.29247284,
1747,35.12004852,
1746,34.79980087,
1745,34.58248138,
1744,34.29243088,
1743,34.06155777,
1742,33.81522751,
1741,33.50967789,
1740,33.3098793,
1739,32.98306656,
1738,32.62984085,
1737,32.31381607,
1736,32.00193024,
1735,31.64138222,
1734,31.24212074,
1733,30.84382439,
1732,30.47643661,
1731,30.0349884,
1730,29.52355194,
1729,29.24055672,
1728,28.41609192,
1727,28.36630249,
1726,28.03601265,
1725,27.72245979,
1724,27.37700081,
1723,27.17110252,
1722,27.01769257,
1721,26.8174057,
1720,26.79913902,
1719,26.70873451,
1718,26.81744957,
1717,26.84841728,
1716,27.0781517,
1715,27.28299713,
1714,27.52844429,
1713,27.87833786,
1712,28.29362106,
1711,28.75734901,
1710,29.15220261,
1709,29.56612015,
1708,30.17261696,
1707,30.62427139,
1706,31.18709373,
1705,31.69308853,
1704,32.33091736,
1703,32.85087585,
1702,33.50972366,
1701,34.03396988,
1700,34.66959763,
1699,35.34908295,
1698,35.90686798,
1697,36.51966095,
1696,37.0472908,
1695,37.81610489,
1694,38.39216995,
1693,38.93356323,
1692,39.45355225,
1691,40.08560562,
1690,40.61165619,
1689,41.04317856,
1688,41.79452515,
1687,42.18984222,
1686,42.72231293,
1685,43.21865082,
1684,43.67323685,
1683,44.20949173,
1682,44.73654556,
1681,45.27312851,
1680,45.8751297,
1679,46.58332062,
1678,47.2973671,
1677,48.06993866,
1676,48.86781693,
1675,49.75561142,
1674,50.79500198,
1673,51.7995491,
1672,52.82473755,
1671,54.05753708,
1670,55.117733,
1669,56.32339096,
1668,57.65945816,
1667,58.71488953,
1666,59.88485718,
1665,61.04938507,
1664,62.2554245,
1663,63.27393723,
1662,64.27005005,
1661,65.38993073,
1660,66.26283264,
1659,67.10594177,
1658,67.96053314,
1657,68.6001358,
1656,69.26166534,
1655,69.94902802,
1654,70.43025208,
1653,70.88421631,
1652,71.37301636,
1651,71.72525787,
1650,72.09557343,
1649,72.36242676,
1648,72.65975189,
1647,72.86446381,
1646,73.06237793,
1645,73.29421997,
1644,73.38587952,
1643,73.42617035,
1642,73.52612305,
1641,73.44754028,
1640,73.51906586,
1639,73.57402802,
1638,73.47486115,
1637,73.39768982,
1636,73.26127625,
1635,73.21051025,
1634,73.1100769,
1633,73.05657196,
1632,73.00286102,
1631,72.94766235,
1630,72.97394562,
1629,73.00452423,
1628,73.07541656,
1627,73.21652222,
1626,73.46737671,
1625,73.59483337,
1624,73.8245697,
1623,74.10332489,
1622,74.33017731,
1621,74.66955566,
1620,74.91162109,
1619,75.14489746,
1618,75.45988464,
1617,75.65070343,
1616,75.88469696,
1615,76.14586639,
1614,76.30625153,
1613,76.51793671,
1612,76.6674118,
1611,76.7765274,
1610,76.90771484,
1609,77.02065277,
1608,77.18582153,
1607,77.21684265,
1606,77.28782654,
1605,77.40057373,
1604,77.41057587,
1603,77.46813202,
1602,77.4741745,
1601,77.54119873,
1600,77.63498688,
1599,77.66751862,
1598,77.6783905,
1597,77.75726318,
1596,77.70057678,
1595,77.73580933,
1594,77.78478241,
1593,77.76615143,
1592,77.85740662,
1591,77.85424805,
1590,77.86148834,
1589,77.81896973,
1588,77.80391693,
1587,77.86520386,
1586,77.9078598,
1585,77.88329315,
1584,77.95970917,
1583,77.8870697,
1582,77.89828491,
1581,77.89160919,
1580,77.92479706,
1579,77.92989349,
1578,77.92756653,
1577,77.93544006,
1576,77.83776855,
1575,77.8550415,
1574,77.92318726,
1573,77.82539368,
1572,77.83838654,
1571,77.76014709,
1570,77.8466568,
1569,77.76739502,
1568,77.84076691,
1567,77.76885986,
1566,77.73054504,
1565,77.71250916,
1564,77.68695068,
1563,77.68199921,
1562,77.66212463,
1561,77.50098419,
1560,77.59406281,
1559,77.55209351,
1558,77.55075836,
1557,77.50202942,
1556,77.49107361,
1555,77.43736267,
1554,77.38851166,
1553,77.3793335,
1552,77.31450653,
1551,77.29785156,
1550,77.31434631,
1549,77.33293915,
1548,77.26755524,
1547,77.25077057,
1546,77.29855347,
1545,77.24665833,
1544,77.15711975,
1543,77.292099,
1542,77.27168274,
1541,77.18141937,
1540,77.28562927,
1539,77.33579254,
1538,77.23138428,
1537,77.21200562,
1536,77.25667572,
1535,77.16069794,
1534,77.24803162,
1533,77.29145813,
1532,77.19779968,
1531,77.20313263,
1530,77.16529083,
1529,77.2257843,
1528,77.12923431,
1527,77.16177368,
1526,77.16576385,
1525,77.06637573,
1524,77.10848236,
1523,77.08007813,
1522,77.02518463,
1521,77.00027466,
1520,77.01720428,
1519,76.95648956,
1518,76.94783783,
1517,76.87853241,
1516,76.84804535,
1515,76.75079346,
1514,76.72826385,
1513,76.65463257,
1512,76.58830261,
1511,76.51828003,
1510,76.49600983,
1509,76.39374542,
1508,76.44913483,
1507,76.30719757,
1506,76.23826599,
1505,76.13147736,
1504,76.07384491,
1503,75.990242,
1502,75.9500351,
1501,75.85021973,
1500,75.7502594,
1499,75.695961,
1498,75.59957886,
1497,75.51101685,
1496,75.45903015,
1495,75.28678131,
1494,75.2561264,
1493,75.12025452,
1492,75.08655548,
1491,74.97142029,
1490,74.86969757,
1489,74.7856369,
1488,74.56604004,
1487,74.49241638,
1486,74.41226196,
1485,74.29481506,
1484,74.15722656,
1483,74.08094025,
1482,73.94775391,
1481,73.76551819,
1480,73.69445038,
1479,73.55480194,
1478,73.34716034,
1477,73.23165894,
1476,73.03656769,
1475,72.8998642,
1474,72.712883,
1473,72.51885223,
1472,72.34977722,
1471,72.18539429,
1470,71.94132996,
1469,71.7845459,
1468,71.55581665,
1467,71.47103882,
1466,71.28231812,
1465,71.17038727,
1464,70.96784973,
1463,70.88569641,
1462,70.72660065,
1461,70.59576416,
1460,70.54114532,
1459,70.41446686,
1458,70.40575409,
1457,70.2634201,
1456,70.13499451,
1455,69.98724365,
1454,69.86857605,
1453,69.70017242,
1452,69.5627594,
1451,69.345047,
1450,69.22884369,
1449,69.00777435,
1448,68.83860016,
1447,68.66550446,
1446,68.47770691,
1445,68.16950226,
1444,68.03207397,
1443,67.75099945,
1442,67.49947357,
1441,67.31072235,
1440,67.02965546,
1439,66.81825256,
1438,66.51052094,
1437,66.23251343,
1436,65.97370148,
1435,65.74474335,
1434,65.42913055,
1433,65.24523926,
1432,64.95604706,
1431,64.6941452,
1430,64.38919067,
1429,64.21829224,
1428,63.97504807,
1427,63.71269989,
1426,63.54032898,
1425,63.34687424,
1424,63.16969299,
1423,63.05025101,
1422,62.87428284,
1421,62.70587921,
1420,62.6264801,
1419,62.57440567,
1418,62.49638748,
1417,62.39173889,
1416,62.31227112,
1415,62.3740921,
1414,62.34625626,
1413,62.3624382,
1412,62.4969902,
1411,62.60303879,
1410,62.67076111,
1409,62.88607025,
1408,63.09001923,
1407,63.34748077,
1406,63.6135025,
1405,63.91585922,
1404,64.2545929,
1403,64.55163574,
1402,64.88588715,
1401,65.16651917,
1400,65.46918488,
1399,65.80046844,
1398,66.02793884,
1397,66.26643372,
1396,66.5018158,
1395,66.64341736,
1394,66.88301849,
1393,66.9859314,
1392,67.03240967,
1391,67.18300629,
1390,67.23406219,
1389,67.28775024,
1388,67.41343689,
1387,67.44734192,
1386,67.52141571,
1385,67.63768768,
1384,67.81502533,
1383,68.0218277,
1382,68.13700867,
1381,68.3111496,
1380,68.5773468,
1379,68.7218399,
1378,68.90172577,
1377,69.09761047,
1376,69.29090118,
1375,69.50701141,
1374,69.69818878,
1373,70.0984726,
1372,70.13856506,
1371,70.3243103,
1370,70.57611847,
1369,70.77667999,
1368,71.0105896,
1367,71.24253845,
1366,71.5113678,
1365,71.74677277,
1364,72.02033234,
1363,72.17608643,
1362,72.50382233,
1361,72.77225494,
1360,73.00332642,
1359,73.21733856,
1358,73.46525574,
1357,73.73350525,
1356,73.94161224,
1355,74.23642731,
1354,74.51602936,
1353,74.72440338,
1352,75.06009674,
1351,75.31738281,
1350,75.60264587,
1349,75.93717957,
1348,76.27157593,
1347,76.55207825,
1346,76.84687042,
1345,77.03304291,
1344,77.26727295,
1343,77.483284,
1342,77.7485733,
1341,77.91625977,
1340,78.08769226,
1339,78.22923279,
1338,78.42404938,
1337,78.53762817,
1336,78.71005249,
1335,78.78305817,
1334,78.88541412,
1333,78.97498322,
1332,79.01400757,
1331,79.13391876,
1330,79.16891479,
1329,79.2658844,
1328,79.29467773,
1327,79.29348755,
1326,79.29762268,
1325,79.38117218,
1324,79.45251465,
1323,79.45233917,
1322,79.55636597,
1321,79.51223755,
1320,79.54738617,
1319,79.51847839,
1318,79.65338135,
1317,79.59912872,
1316,79.73053741,
1315,79.7026062,
1314,79.66028595,
1313,79.68365479,
1312,79.73013306,
1311,79.76657867,
1310,79.7302475,
1309,79.76904297,
1308,79.7633667,
1307,79.74606323,
1306,79.76895142,
1305,79.73677063,
1304,79.86791229,
1303,79.8276062,
1302,79.7819519,
1301,79.82644653,
1300,79.80181885,
1299,79.8649826,
1298,79.78295898,
1297,79.83307648,
1296,79.72538757,
1295,79.80209351,
1294,79.79187012,
1293,79.77641296,
1292,79.8168335,
1291,79.75829315,
1290,79.75746918,
1289,79.70533752,
1288,79.7108078,
1287,79.74320984,
1286,79.70726776,
1285,79.72663879,
1284,79.71110535,
1283,79.713974,
1282,79.66641235,
1281,79.64988708,
1280,79.65869141,
1279,79.63123322,
1278,79.54163361,
1277,79.66138458,
1276,79.64814758,
1275,79.62242126,
1274,79.60984802,
1273,79.5483551,
1272,79.58786011,
1271,79.53034973,
1270,79.56100464,
1269,79.46775055,
1268,79.53650665,
1267,79.46420288,
1266,79.31520081,
1265,79.40171051,
1264,79.29826355,
1263,79.27036285,
1262,79.18723297,
1261,79.20005035,
1260,79.15995026,
1259,79.14892578,
1258,79.08432007,
1257,79.06880951,
1256,79.06672668,
1255,78.94523621,
1254,78.87360382,
1253,78.78839874,
1252,78.68930054,
1251,78.62102509,
1250,78.5158844,
1249,78.48725891,
1248,78.51083374,
1247,78.3972702,
1246,78.28201294,
1245,78.17012024,
1244,78.0317688,
1243,77.99188995,
1242,77.8533783,
1241,77.70579529,
1240,77.71598053,
1239,77.48430634,
1238,77.37672424,
1237,77.19503784,
1236,77.05451965,
1235,76.95487976,
1234,76.76815033,
1233,76.56158447,
1232,76.50699615,
1231,76.26776123,
1230,76.06784821,
1229,75.90912628,
1228,75.69736481,
1227,75.42590332,
1226,75.32502747,
1225,75.08540344,
1224,74.93115997,
1223,74.77535248,
1222,74.46746826,
1221,74.2765274,
1220,74.04581451,
1219,73.87921906,
1218,73.63149261,
1217,73.4608078,
1216,73.27840424,
1215,73.06105804,
1214,72.91136169,
1213,72.77146149,
1212,72.56401062,
1211,72.43541718,
1210,72.22302246,
1209,72.07733154,
1208,71.89667511,
1207,71.75601959,
1206,71.64295197,
1205,71.52577209,
1204,71.40885162,
1203,71.26380157,
1202,71.19869232,
1201,70.99007416,
1200,70.86806488,
1199,70.83568573,
1198,70.66278076,
1197,70.61875916,
1196,70.5512085,
1195,70.45368195,
1194,70.40473175,
1193,70.2701416,
1192,70.20153809,
1191,70.18766022,
1190,70.05908203,
1189,70.03012085,
1188,69.99615479,
1187,69.9392395,
1186,69.89180756,
1185,69.9432373,
1184,69.83911896,
1183,69.98548126,
1182,69.97583771,
1181,70.05845642,
1180,70.15187073,
1179,70.29575348,
1178,70.37705994,
1177,70.48149872,
1176,70.63597107,
1175,70.86991119,
1174,71.02838135,
1173,71.25804901,
1172,71.4934082,
1171,71.71401215,
1170,71.96485138,
1169,72.29285431,
1168,72.56716156,
1167,72.70022583,
1166,73.06728363,
1165,73.23343658,
1164,73.56105042,
1163,73.82974243,
1162,74.11765289,
1161,74.34552765,
1160,74.5131073,
1159,74.79037476,
1158,74.98842621,
1157,75.26649475,
1156,75.51403809,
1155,75.6895752,
1154,75.954216,
1153,76.18692017,
1152,76.48336029,
1151,76.69308472,
1150,76.84204865,
1149,77.18703461,
1148,77.36868286,
1147,77.68012238,
1146,77.84307861,
1145,78.00839996,
1144,78.23318481,
1143,78.46953583,
1142,78.61348724,
1141,78.79043579,
1140,78.96406555,
1139,79.10353851,
1138,79.28305054,
1137,79.40792847,
1136,79.64099884,
1135,79.67919922,
1134,79.8179245,
1133,80.01625061,
1132,80.13397217,
1131,80.36256409,
1130,80.44556427,
1129,80.50967407,
1128,80.73162842,
1127,80.86937714,
1126,81.00039673,
1125,81.13088989,
1124,81.22186279,
1123,81.34649658,
1122,81.42124939,
1121,81.50319672,
1120,81.54363251,
1119,81.64951324,
1118,81.66896057,
1117,81.74517822,
1116,81.84295654,
1115,81.94781494,
1114,81.96786499,
1113,82.0348053,
1112,82.05808258,
1111,82.16971588,
1110,82.13776398,
1109,82.3197937,
1108,82.30850983,
1107,82.32391357,
1106,82.40500641,
1105,82.38819122,
1104,82.55825043,
1103,82.5030365,
1102,82.55504608,
1101,82.49175262,
1100,82.64704132,
1099,82.60668182,
1098,82.65492249,
1097,82.61066437,
1096,82.69637299,
1095,82.68205261,
1094,82.71108246,
1093,82.70986938,
1092,82.72976685,
1091,82.79611969,
1090,82.81040192,
1089,82.81040955,
1088,82.84624481,
1087,82.94207764,
1086,82.90699005,
1085,82.87397766,
1084,82.96669769,
1083,82.91331482,
1082,82.89844513,
1081,83.00689697,
1080,82.95793152,
1079,82.92373657,
1078,82.9829483,
1077,82.99961853,
1076,83.01507568,
1075,82.93281555,
1074,83.09413147,
1073,83.10447693,
1072,83.03105164,
1071,83.03822327,
1070,83.09327698,
1069,83.04379272,
1068,83.06973267,
1067,83.07427216,
1066,83.09468842,
1065,83.18115234,
1064,83.09079742,
1063,83.10070801,
1062,83.08729553,
1061,83.05395508,
1060,83.09325409,
1059,83.13578033,
1058,83.07962799,
1057,83.12954712,
1056,83.07785797,
1055,83.12759399,
1054,83.12303162,
1053,83.21607971,
1052,83.2088623,
1051,83.19447327,
1050,83.2121582,
1049,83.18466187,
1048,83.19757843,
1047,83.18579102,
1046,83.2015152,
1045,83.31707764,
1044,83.21550751,
1043,83.15814209,
1042,83.22240448,
1041,83.12046814,
1040,83.24519348,
1039,83.24317932,
1038,83.37194824,
1037,83.34409332,
1036,83.36484528,
1035,83.34481812,
1034,83.42523193,
1033,83.36755371,
1032,83.39635468,
1031,83.47711945,
1030,83.47576141,
1029,83.49472809,
1028,83.4960022,
1027,83.53294373,
1026,83.56021118,
1025,83.63114929,
1024,83.70339966,
1023,83.66703033,
1022,83.72653961,
1021,83.73586273,
1020,83.82506561,
1019,83.88539886,
1018,83.60703278,
1017,83.84278107,
1016,83.9609375,
1015,84.00547791,
1014,83.94138336,
1013,83.98980713,
1012,84.08388519,
1011,84.07660675,
1010,84.17749786,
1009,84.18441772,
1008,84.31961823,
1007,84.26988983,
1006,84.3188858,
1005,84.47338104,
1004,84.41375732,
1003,84.53358459,
1002,84.49816132,
1001,84.59959412,
1000,84.57663727,
999,84.67494202,
998,84.70877838,
997,84.86827087,
996,84.90740967,
995,84.91184998,
994,84.97333527,
993,84.99216461,
992,85.01247406,
991,85.07720947,
990,85.09229279,
989,85.1506958,
988,85.23625946,
987,85.26786804,
986,85.22557831,
985,85.30613708,
984,85.38098145,
983,85.32887268,
982,85.51010132,
981,85.52214813,
980,85.55007935,
979,85.65289307,
978,85.54328918,
977,85.67234802,
976,85.68096924,
975,85.70645905,
974,85.80192566,
973,85.80662537,
972,85.84481812,
971,85.83084869,
970,85.96337891,
969,85.87854004,
968,86.06484222,
967,86.13993835,
966,86.0867691,
965,86.15159607,
964,86.18778229,
963,86.26811218,
962,86.33296204,
961,86.35678864,
960,86.35070801,
959,86.3704834,
958,86.44379425,
957,86.50782013,
956,86.50486755,
955,86.43977356,
954,86.52907562,
953,86.58045197,
952,86.54608917,
951,86.60675812,
950,86.63816833,
949,86.67881775,
948,86.65350342,
947,86.60804749,
946,86.70167542,
945,86.75128937,
944,86.74794006,
943,86.74888611,
942,86.78918457,
941,86.74355316,
940,86.7569809,
939,86.82437897,
938,86.79383087,
937,86.81049347,
936,86.91226959,
935,86.7891922,
934,86.90613556,
933,86.93226624,
932,86.96640015,
931,86.967659,
930,86.97382355,
929,86.96111298,
928,87.0320282,
927,87.08332825,
926,87.04802704,
925,87.07291412,
924,87.07060242,
923,87.15333557,
922,87.19538116,
921,87.20859528,
920,87.18144989,
919,87.18119812,
918,87.30027008,
917,87.27876282,
916,87.3109436,
915,87.32111359,
914,87.2855835,
913,87.43622589,
912,87.45623016,
911,87.5083313,
910,87.44847107,
909,87.49959564,
908,87.51852417,
907,87.67696381,
906,87.60715485,
905,87.77442932,
904,87.82125092,
903,87.69593811,
902,87.78852081,
901,87.85198975,
900,87.92204285,
899,87.92453766,
898,88.00029755,
897,88.06816101,
896,88.08518219,
895,87.91983032,
894,88.12003326,
893,88.4463501,
892,88.22453308,
891,88.3901062,
890,88.35964966,
889,88.48426056,
888,88.58538818,
887,88.66398621,
886,88.70806122,
885,88.76403809,
884,88.93061066,
883,88.9546814,
882,88.93700409,
881,89.1312027,
880,89.18941498,
879,89.1973877,
878,89.38802338,
877,89.31686401,
876,89.47904968,
875,89.56073761,
874,89.4776535,
873,89.76583099,
872,89.78289795,
871,89.78433228,
870,89.94033813,
869,89.85405731,
868,90.03839111,
867,89.99291992,
866,90.22442627,
865,90.15876007,
864,90.25093842,
863,90.45334625,
862,90.36714172,
861,90.40560913,
860,90.53128052,
859,90.6570282,
858,90.51315308,
857,90.60258484,
856,90.82700348,
855,90.89057922,
854,90.66255951,
853,90.81942749,
852,90.95018768,
851,91.00719452,
850,91.11128235,
849,90.91467285,
848,91.23495483,
847,91.23130035,
846,91.07508087,
845,91.3223114,
844,91.32405853,
843,91.45868683,
842,91.51983643,
841,91.78580475,
840,91.51946259,
839,91.47144318,
838,91.92153168,
837,91.6615448,
836,91.5152359,
835,91.96086884,
834,91.86296844,
833,92.03348541,
832,92.02171326,
831,92.06115723,
830,92.03926086,
829,92.13126373,
828,92.26258087,
827,92.27207947,
826,92.25650024,
825,92.43209076,
824,92.2572937,
823,92.62062836,
822,92.5153656,
821,92.42185974,
820,92.88212585,
819,92.51853943,
818,92.49225616,
817,92.79753113,
816,93.01488495,
815,92.87909698,
814,92.82693481,
813,92.91716003,
812,92.93693542,
811,93.29022217,
810,93.38238525,
809,93.00489044,
808,93.14959717,
807,93.3121109,
806,93.43418884,
805,93.20626831,
804,93.44090271,
803,93.58745575,
802,92.93982697,
801,93.82709503,
800,93.34932709,
799,93.77966309,
798,94.1504364,
797,94.48675537,
796,94.30016327,
795,94.55725098,
794,94.60362244,
793,94.5867157,
792,94.65407562,
791,94.69460297,
790,94.61763763,
789,94.7974472,
788,94.69954681,
787,94.75208282,
786,95.0043335,
785,94.890625,
784,94.92900085,
783,95.10489655,
782,94.9625473,
781,95.06518555,
780,94.97714996,
779,95.13681793,
778,95.34958649,
777,95.39833069,
776,95.41785431,
775,95.42578888,
774,95.46968079,
773,95.5171814,
772,95.39093018,
771,95.33235931,
770,95.51828766,
769,95.54316711,
768,95.48231506,
767,95.75338745,
766,95.67286682,
765,95.76122284,
764,95.72048187,
763,95.91573334,
762,95.88027954,
761,95.76329041,
760,95.96635437,
759,96.00152588,
758,96.1242218,
757,95.96894073,
756,96.11308289,
755,96.20592499,
754,96.21681213,
753,96.2335434,
752,96.1036911,
751,96.3044281,
750,96.25357819,
749,96.31635284,
748,96.3988266,
747,96.43125153,
746,96.4430542,
745,96.50891113,
744,96.63265991,
743,96.56583405,
742,96.58996582,
741,96.63861847,
740,96.74204254,
739,96.82991791,
738,96.75748444,
737,96.89764404,
736,96.81387329,
735,97.03029633,
734,96.97199249,
733,96.98680115,
732,97.10557556,
731,97.03869629,
730,97.01921844,
729,97.05268097,
728,97.20743561,
727,97.18537903,
726,97.23516083,
725,97.27787018,
724,97.33435822,
723,97.47297668,
722,97.45404816,
721,97.40851593,
720,97.39711761,
719,97.55918121,
718,97.55421448,
717,97.54795837,
716,97.49879456,
715,97.62769318,
714,97.650383,
713,97.67105865,
712,97.64615631,
711,97.70871735,
710,97.66423035,
709,97.72985077,
708,97.65592194,
707,97.73004913,
706,97.79418945,
705,97.7971344,
704,97.6855545,
703,97.82418823,
702,97.84626007,
701,97.88669586,
700,97.89868927,
699,97.81907654,
698,97.94264221,
697,97.8289566,
696,97.8632431,
695,97.8622818,
694,97.88809204,
693,97.99620819,
692,97.82080078,
691,97.86306763,
690,97.88980865,
689,97.83440399,
688,97.92953491,
687,97.86558533,
686,97.87573242,
685,97.88807678,
684,97.81416321,
683,97.81010437,
682,97.78418732,
681,97.7899704,
680,97.67250061,
679,97.70417023,
678,97.68451691,
677,97.63563538,
676,97.61756134,
675,97.63119507,
674,97.54543304,
673,97.54543304,
672,97.45149994,
671,97.4130249,
670,97.3416214,
669,97.29699707,
668,97.25944519,
667,97.09394836,
666,97.00495911,
665,96.97853088,
664,96.83577728,
663,96.75511169,
662,96.67711639,
661,96.60043335,
660,96.48943329,
659,96.4008255,
658,96.35166931,
657,96.23554993,
656,96.07656097,
655,95.99250031,
654,95.94430542,
653,95.79724121,
652,95.72380829,
651,95.63507843,
650,95.59864044,
649,95.49131775,
648,95.35526276,
647,95.24531555,
646,95.20694733,
645,95.06273651,
644,95.00624847,
643,94.92493439,
642,94.84169769,
641,94.68562317,
640,94.64768219,
639,94.54624176,
638,94.44249725,
637,94.30675507,
636,94.20056915,
635,94.04721832,
634,93.91143799,
633,93.88660431,
632,93.74276733,
631,93.57972717,
630,93.47557068,
629,93.33869171,
628,93.23867035,
627,93.03083801,
626,92.88720703,
625,92.76702881,
624,92.66954803,
623,92.54283905,
622,92.39888763,
621,92.2868576,
620,92.11620331,
619,91.96797943,
618,91.81227875,
617,91.65970612,
616,91.53964996,
615,91.41632843,
614,91.23883057,
613,91.09765625,
612,90.80316162,
611,90.59176636,
610,90.45919037,
609,90.2000885,
608,89.97929382,
607,89.69785309,
606,89.55926514,
605,89.25033569,
604,89.01585388,
603,88.73255157,
602,88.47397614,
601,88.15559387,
600,87.87882996,
599,87.52310944,
598,87.25450897,
597,86.912117,
596,86.56297302,
595,86.19689941,
594,85.84706879,
593,85.46888733,
592,85.007164,
591,84.61065674,
590,84.17095184,
589,83.71135712,
588,83.20490265,
587,82.69652557,
586,82.12691498,
585,81.62599945,
584,81.0112381,
583,80.35601044,
582,79.75127411,
581,79.04558563,
580,78.25771332,
579,77.54824829,
578,76.76106262,
577,75.91495514,
576,75.14566803,
575,74.17835999,
574,73.20798492,
573,72.24620056,
572,71.24662781,
571,70.11543274,
570,69.01390076,
569,67.94818878,
568,66.75893402,
567,65.45140076,
566,64.14454651,
565,62.78067398,
564,61.47490311,
563,60.08971786,
562,58.68465424,
561,57.22302246,
560,55.75841141,
559,54.25434113,
558,52.77378082,
557,51.15647888,
556,49.6608429,
555,48.06978989,
554,46.58526993,
553,44.97024918,
552,43.4294014,
551,41.769207,
550,40.23040771,
549,38.61817932,
548,37.08908081,
547,35.49753571,
546,33.92777634,
545,32.35896683,
544,30.8328476,
543,29.30130386,
542,27.82643509,
541,26.328022,
540,24.87359238,
539,23.46552658,
538,22.05419922,
537,20.69704628,
536,19.39134216,
535,18.09766006,
534,16.90287971,
533,15.70367241,
532,14.59699249,
531,13.50343513,
530,12.48373795,
529,11.50915718,
528,10.55424786,
527,9.678533554,
526,8.883818626,
525,8.101460457,
524,7.380926609,
523,6.708580017,
522,6.09564352,
521,5.517194271,
520,4.990746975,
519,4.502466679,
518,4.054401398,
517,3.658524513,
516,3.283141613,
515,2.944134951,
514,2.639420033,
513,2.360072613,
512,2.109400988,
511,1.880919695,
510,1.685702801,
509,1.500416875,
508,1.332687259,
507,1.188900471,
506,1.053984642,
505,0.9315932989,
504,0.8326121569,
503,0.7418627143,
502,0.6555002928,
501,0.5813291073,
500,0.5141612887,
499,0.4553425014,
498,0.4054885507,
497,0.3624666333,
496,0.3199993968,
495,0.2863260806,
494,0.2551680505,
493,0.2276435047,
492,0.2011323869,
491,0.1785409749,
490,0.1595533639,
489,0.1432830095,
488,0.1296782643,
487,0.1162018627,
486,0.1039571837,
485,0.0960406065,
484,0.08776109666,
483,0.07463409752,
482,0.06932388991,
481,0.06104429439,
480,0.05801649019,
479,0.05510689318,
478,0.04991512373,
477,0.04386948422,
476,0.04007181153,
475,0.03753815964,
474,0.03244437277,
473,0.03163358569,
472,0.03094840795,
471,0.02587385848,
470,0.02493368275,
469,0.02432101965,
468,0.0194439292,
467,0.01852905378,
466,0.01809470914,
465,0.01823095046,
464,0.01783100329,
463,0.0153358914,
462,0.01458507311,
461,0.01319727488,
460,0.01317465771,
459,0.01078377105,
458,0.01236867066,
457,0.01071516704,
456,0.01132353581,
455,0.009427792393,
454,0.01105382107,
453,0.01007853448,
452,0.01035488117,
451,0.00928451214,
450,0.008599990048,
449,0.01026459318,
448,0.009580200538,
447,0.007596618496,
446,0.007121264935,
445,0.008061782457,
444,0.006791140884,
443,0.006247925106,
442,0.008893298917,
441,0.007825757377,
440,0.006097092759,
439,0.006690417416,
438,0.006763905752,
437,0.006631331053,
436,0.006912501063,
435,0.007436514832,
434,0.006374114193,
433,0.006982535124,
432,0.006222546566,
431,0.00794806052,
430,0.006253210362,
429,0.006780685857,
428,0.009051045403,
427,0.007697934285,
426,0.006852420978,
425,0.007642516866,
424,0.004899705295,
423,0.007070569787,
422,0.00796843227,
421,0.005814180709,
420,0.007484077476,
419,0.006580636371,
418,0.008139265701,
417,0.008127683774,
416,0.009483320639,
415,0.007917444222,
414,0.006381692365,
413,0.009669842198,
412,0.01006204449,
411,0.01090905163,
410,0.01039918326,
409,0.01234347746,
408,0.01130644511,
407,0.01311124396,
406,0.0131515041,
405,0.01475441642,
404,0.01339309569,
403,0.01381956786,
402,0.01708476804,
401,0.01672118902,
400,0.022821052,
399,0.02237776667,
398,0.02491046302,
397,0.02473175339,
396,0.02700512111,
395,0.03147120401,
394,0.03769683093,
393,0.04085967317,
392,0.04522070289,
391,0.05067263171,
390,0.05917660147,
389,0.06373695284,
388,0.07105135918,
387,0.07752490789,
386,0.08327881247,
385,0.09459756315,
384,0.1083685756,
383,0.1172365621,
382,0.1319457442,
381,0.1396951526,
380,0.162491098,
379,0.1748430729,
378,0.1973025054,
377,0.212338984,
376,0.2333258092,
375,0.2508156598,
374,0.2728572786,
373,0.3016988337,
372,0.3254284859,
371,0.3615553379,
370,0.3755546212,
369,0.4026825428,
368,0.4290869534,
367,0.4664123654,
366,0.4884542525,
365,0.5369387865,
364,0.5521738529,
363,0.5913954973,
362,0.6404259205,
361,0.673387289,
360,0.7139088511,
359,0.7489746213,
358,0.8087880015,
357,0.8565051556,
356,0.8908917308,
355,0.94265908,
354,0.9923885465,
353,1.041625261,
352,1.086000204,
351,1.136728048,
350,1.185786366,
349,1.234704733,
348,1.273465753,
347,1.292042255,
346,1.356612206,
345,1.396384597,
344,1.468208671,
343,1.473947763,
342,1.509929776,
341,1.513781309,
340,1.611344576,
339,1.654373527,
338,1.604490042,
337,1.668520808,
336,1.674175978,
335,1.691562891,
334,1.638308764,
333,1.649752021,
332,1.618532419,
331,1.588791609,
330,1.539078236,
329,1.471302986,
328,1.431402326,
327,1.346175194,
326,1.321623564,
325,1.239787579,
324,1.108700633,
323,1.069483042,
322,1.045495272,
321,0.9237494469,
320,0.885406673,
319,0.8197982907,
318,0.7402133942,
317,0.6677626967,
316,0.6263870001,
315,0.5179419518,
314,0.4985716343,
313,0.4386146963,
312,0.402220577,
311,0.3572138548,
310,0.3183065355,
309,0.2810745239,
308,0.2510483861,
307,0.2031919807,
306,0.2047711462,
305,0.1623252928,
304,0.149674952,
303,0.1381150335,
302,0.1074497849,
301,0.09277095646,
300,0.09390702844,
299,0.08212668449,
298,0.06379000098,
297,0.05877599865,
296,0.05336910859,
295,0.05003321543,
294,0.0385209322,
293,0.03294715285,
292,0.0240400508,
291,0.01691885106,
290,0.02678511664,
289,0.02265642025,
288,0.02701917291,
287,0.01831618324,
286,0.02563595213,
285,0.0331937857,
284,0.02344150096,
283,0.01953809522,
282,0.02197807282,
281,0.02193615586,
280,0.01572458632,
279,0.02431484312,
278,0.02020082809,
277,0.02274919115,
276,0.03768661991,
275,0.02941804193,
274,0.02311352082,
273,0.02091892622,
272,0.03015235625,
271,0.02775688469,
270,0.02209466137,
269,0.02629533038,
268,0.02027985454,
267,0.02810127847,
266,0.04318776727,
265,0.03114726767,
264,0.03582635522,
263,0.03982626274,
262,0.03305715322,
261,0.04738965631,
260,0.04968684912,
259,0.04899716005,
258,0.04136543348,
257,0.05011224002,
256,0.05153439194,
255,0.04390835389,
254,0.05051175877,
253,0.04905577376,
252,0.06252714247,
251,0.05428754911,
250,0.0424657017,

F540,
F540
Collection Time: 16.07.2019 10:41:03
Operator Name  :
Scan Software Version: 3.00(339)
Parameter List :
Instrument                        Cary 500
Instrument Version                8.01
Start (nm)                        2500.000
Stop (nm)                         250.000
X Mode                            Nanometers
Y Mode                            %T
Independent NIR                   On
Measurement Mode                  Auto
UV-Vis Scan Rate (nm/min)         361.446
UV-Vis Data Interval (nm)         1.00
UV-Vis Ave. Time (sec)            0.166
UV-Vis SBW (nm)                   2.000
NIR Scan Rate (nm/min)            361.446
NIR Data Interval (nm)            1.00
NIR Ave. Time (sec)               0.166
NIR Energy                        3.00
Slit Height                       Reduced
Beam Mode                         Double
Signal-to-noise Mode              Off
UV Source                         On
Vis Source                        On
Third Source                      Off
Source Changeover (nm)            350.00
Detector Changeover (nm)          800.00
Grating Changeover (nm)           800.00
Baseline Correction               On
Baseline Type                     Zero/baseline correction
Baseline File Name                C:\Data\Roland\Chrono\Kantenfilter-Sport.BSW
Baseline Std Ref File Name
Cycle Mode                        Off
Comments
Method Log     :
Method Name    : C:\Data\Methods\R tot ulbricht.MSW
Date/Time stamp: 11.07.2003 10:02:27
Method Modifications:
Opened C:\Data\Methods\R tot ulbricht.MSW
Baseline file Changed: 16.07.2019 08:14:02, Old:C:\Varian\Cary WinUV\Marc\Methods\R tot ulbricht.MSW, New:C:\Data\Methods\R tot ulbricht.MSW
Y mode Changed: 16.07.2019 08:14:58, Old:%R, New:%T
Baseline file Changed: 16.07.2019 08:15:24, Old:C:\Data\Methods\R tot ulbricht.MSW, New:
Saved as C:\Data\Roland\Chrono\Kantenfilter-Sport.BSW
Baseline file Changed: 16.07.2019 10:22:30, Old:, New:C:\Data\Roland\Chrono\Kantenfilter-Sport.BSW
End Method Modifications
<SBW (nm)> , 2.00
<Energy> , 436.52
<Slit height> , Reduced
<Current Wavelength> , 250.000

