sample1,,
Wavelength (nm),%T,
2500,4.521569252,
2499,4.023872852,
2498,4.69645071,
2497,4.625243664,
2496,4.434132576,
2495,4.57583046,
2494,4.214333057,
2493,4.088134289,
2492,4.675702572,
2491,4.698011398,
2490,4.297251225,
2489,4.60869503,
2488,4.373838902,
2487,4.298635006,
2486,4.136377335,
2485,4.268713474,
2484,4.707640171,
2483,4.167435169,
2482,4.444139004,
2481,4.426446915,
2480,4.598722458,
2479,4.547604561,
2478,4.410851955,
2477,4.234598637,
2476,4.26845789,
2475,4.426247597,
2474,4.60657835,
2473,4.302947044,
2472,4.272441387,
2471,4.257544518,
2470,4.101267815,
2469,4.283141613,
2468,4.409384251,
2467,4.476727486,
2466,4.208613396,
2465,4.396932602,
2464,4.33902359,
2463,4.215116024,
2462,4.237765312,
2461,4.283918381,
2460,4.149055004,
2459,3.995052338,
2458,4.169032574,
2457,4.169882298,
2456,4.175549507,
2455,4.277130127,
2454,4.238643169,
2453,4.248757839,
2452,4.331468582,
2451,4.370447636,
2450,4.152665138,
2449,4.018227577,
2448,4.072932243,
2447,4.239842892,
2446,4.290796757,
2445,4.071097851,
2444,4.010008812,
2443,4.336504459,
2442,4.049593925,
2441,4.173012257,
2440,4.093699455,
2439,4.355489254,
2438,4.266144753,
2437,4.345517635,
2436,4.283545017,
2435,4.315019131,
2434,4.211037636,
2433,4.368992805,
2432,4.409002304,
2431,4.548286438,
2430,4.349122524,
2429,4.488115311,
2428,4.315746307,
2427,4.491776943,
2426,4.58146286,
2425,4.644958019,
2424,4.524012566,
2423,4.634972572,
2422,4.574156284,
2421,4.702276707,
2420,4.735336304,
2419,4.813877106,
2418,4.670144081,
2417,4.698845863,
2416,4.62681818,
2415,4.792606831,
2414,4.920992851,
2413,4.729670048,
2412,4.753116608,
2411,4.947568893,
2410,4.928575516,
2409,4.887469292,
2408,4.849893093,
2407,4.847783089,
2406,4.767883778,
2405,5.004141331,
2404,4.676854134,
2403,4.93450737,
2402,4.868337154,
2401,4.731136322,
2400,4.868139744,
2399,4.770544052,
2398,4.855084419,
2397,4.828559399,
2396,4.725380898,
2395,4.696731091,
2394,4.719036579,
2393,4.585132599,
2392,4.850540161,
2391,4.587432861,
2390,4.689611435,
2389,4.616860867,
2388,4.580310345,
2387,4.629878521,
2386,4.658966064,
2385,4.565159798,
2384,4.563801289,
2383,4.46364975,
2382,4.502279758,
2381,4.405444622,
2380,4.402677536,
2379,4.301794529,
2378,4.3326931,
2377,4.334658623,
2376,4.316241264,
2375,4.227949142,
2374,4.286994934,
2373,4.243287563,
2372,4.228088379,
2371,4.137794971,
2370,4.095830917,
2369,4.153657913,
2368,4.224676609,
2367,4.064861298,
2366,4.0802145,
2365,3.618947506,
2364,4.198184013,
2363,4.100758076,
2362,4.031392574,
2361,4.030064583,
2360,3.978089333,
2359,3.985868692,
2358,3.925532579,
2357,3.92466712,
2356,4.012512207,
2355,3.887145519,
2354,3.950493336,
2353,3.909213781,
2352,3.893133163,
2351,3.841036558,
2350,3.938869715,
2349,3.917622089,
2348,4.038696289,
2347,3.893359661,
2346,3.989477396,
2345,3.950594664,
2344,3.93407011,
2343,3.879778147,
2342,3.909241676,
2341,3.943191767,
2340,3.939553261,
2339,3.950824261,
2338,3.950572014,
2337,3.935836315,
2336,3.933401108,
2335,3.935060978,
2334,3.919717312,
2333,3.994498014,
2332,3.900682211,
2331,3.991549492,
2330,3.874723196,
2329,4.020865917,
2328,4.031098843,
2327,4.108529091,
2326,4.120480061,
2325,4.158569336,
2324,4.149007797,
2323,4.191699028,
2322,4.215024948,
2321,4.290947437,
2320,4.229920387,
2319,4.170440674,
2318,4.261636257,
2317,4.270690918,
2316,4.370597839,
2315,4.280055523,
2314,4.284519196,
2313,4.252075195,
2312,4.302114487,
2311,4.315673828,
2310,4.322908401,
2309,4.311647892,
2308,4.369497299,
2307,4.287866592,
2306,4.30129528,
2305,4.393961906,
2304,4.26975441,
2303,4.374599934,
2302,4.447401524,
2301,4.31158638,
2300,4.348720551,
2299,4.402264595,
2298,4.420076847,
2297,4.46136713,
2296,4.276548386,
2295,4.301954746,
2294,4.437853336,
2293,4.374719143,
2292,4.473106384,
2291,4.473942757,
2290,4.381815434,
2289,4.561583996,
2288,4.396502495,
2287,4.377635956,
2286,4.297109127,
2285,4.551290512,
2284,4.466073036,
2283,4.651430607,
2282,4.368098259,
2281,4.535123348,
2280,4.434316635,
2279,4.347780228,
2278,4.459857464,
2277,4.544328213,
2276,4.487825871,
2275,4.222002983,
2274,4.251078606,
2273,4.562879562,
2272,4.294978619,
2271,4.272257805,
2270,4.334740162,
2269,4.669547558,
2268,4.505153179,
2267,4.233558655,
2266,4.012073994,
2265,4.196771622,
2264,4.297472,
2263,4.008646011,
2262,4.122786045,
2261,4.443833828,
2260,4.166612625,
2259,4.463091373,
2258,4.473012447,
2257,4.440830708,
2256,4.530156136,
2255,4.621584892,
2254,4.601570129,
2253,4.730365276,
2252,4.694506645,
2251,5.035058022,
2250,5.208331108,
2249,5.558209896,
2248,5.924107075,
2247,6.309498787,
2246,6.530594826,
2245,7.020354271,
2244,7.539161205,
2243,7.905903339,
2242,8.39900589,
2241,9.071068764,
2240,9.614860535,
2239,10.18170738,
2238,10.80733871,
2237,11.60667419,
2236,12.16473389,
2235,13.0436573,
2234,13.7551918,
2233,14.53381443,
2232,15.26691914,
2231,16.26952934,
2230,17.20118713,
2229,18.03493118,
2228,18.98311424,
2227,19.91262436,
2226,20.77370644,
2225,21.74657059,
2224,22.79752731,
2223,23.88739204,
2222,24.81870842,
2221,25.87195015,
2220,26.74022293,
2219,27.99501801,
2218,29.03011513,
2217,30.20684433,
2216,31.03813744,
2215,32.22829819,
2214,33.27160263,
2213,34.23170471,
2212,35.15341949,
2211,36.16275787,
2210,37.11204147,
2209,38.12899017,
2208,38.84595871,
2207,39.69028854,
2206,40.5489502,
2205,41.29842377,
2204,42.04433823,
2203,42.77217484,
2202,43.40179443,
2201,43.95311356,
2200,44.46969223,
2199,45.01896667,
2198,45.54001999,
2197,45.99625397,
2196,46.43561554,
2195,46.77858353,
2194,47.25074005,
2193,47.49811172,
2192,47.8710022,
2191,48.21315002,
2190,48.45148468,
2189,48.7717247,
2188,48.9290657,
2187,49.16103363,
2186,49.3297081,
2185,49.60569,
2184,49.60662079,
2183,49.75283813,
2182,49.8541069,
2181,49.93335342,
2180,49.98625946,
2179,49.95363998,
2178,50.05000687,
2177,49.89790726,
2176,49.72182465,
2175,49.79190063,
2174,49.47027206,
2173,49.36034775,
2172,49.1894722,
2171,49.00387192,
2170,48.77060699,
2169,48.50835037,
2168,48.25026321,
2167,47.97939682,
2166,47.64138412,
2165,47.38228989,
2164,47.02948761,
2163,46.84482956,
2162,46.34336472,
2161,45.93505096,
2160,45.55152512,
2159,45.47138214,
2158,45.06972504,
2157,44.88110352,
2156,44.5983963,
2155,44.28060913,
2154,43.91732788,
2153,43.73908997,
2152,43.48849487,
2151,43.31723404,
2150,42.99754715,
2149,42.748703,
2148,42.56454086,
2147,42.18188858,
2146,42.23993683,
2145,41.91738129,
2144,41.70832062,
2143,41.41325378,
2142,41.13806534,
2141,40.83338547,
2140,40.60541534,
2139,40.1667099,
2138,39.92969894,
2137,39.49150848,
2136,39.10126495,
2135,38.77793121,
2134,38.46878433,
2133,38.01522827,
2132,37.52986145,
2131,37.10190201,
2130,36.71762466,
2129,36.39945602,
2128,35.92921066,
2127,35.53338242,
2126,35.31307983,
2125,34.95146942,
2124,34.762146,
2123,34.38660049,
2122,34.3791008,
2121,34.18265533,
2120,34.12421799,
2119,34.06150436,
2118,34.24803925,
2117,34.40296173,
2116,34.30365753,
2115,34.7367897,
2114,34.90358353,
2113,35.4569931,
2112,35.85655212,
2111,36.39585495,
2110,36.85300446,
2109,37.45320511,
2108,38.24472046,
2107,38.97870255,
2106,39.58250809,
2105,40.44194031,
2104,41.30817795,
2103,42.09438324,
2102,43.11628723,
2101,44.02811813,
2100,44.9581337,
2099,45.74682236,
2098,46.76514816,
2097,47.63541412,
2096,48.64326096,
2095,49.59452057,
2094,50.33207703,
2093,51.2869606,
2092,52.12124634,
2091,52.83913422,
2090,53.49847031,
2089,54.23777771,
2088,54.9826622,
2087,55.48083878,
2086,56.1699028,
2085,56.53094101,
2084,57.00588989,
2083,57.44825745,
2082,57.9006424,
2081,58.25272751,
2080,58.51465988,
2079,58.89284134,
2078,59.12877274,
2077,59.35645294,
2076,59.58486176,
2075,59.82620239,
2074,59.85228348,
2073,60.09227753,
2072,60.1837616,
2071,60.34463501,
2070,60.47042465,
2069,60.52475739,
2068,60.58882904,
2067,60.73233032,
2066,60.75541306,
2065,60.91162491,
2064,60.99032593,
2063,60.99232483,
2062,61.13414001,
2061,61.12565231,
2060,61.17958832,
2059,61.38742065,
2058,61.50963974,
2057,61.4274025,
2056,61.53287125,
2055,61.60348129,
2054,61.66184998,
2053,61.7347374,
2052,61.79745102,
2051,61.85733795,
2050,62.07690811,
2049,61.97223663,
2048,62.0050087,
2047,62.05514145,
2046,62.09625626,
2045,62.18102646,
2044,62.28609085,
2043,62.22026443,
2042,62.26415634,
2041,62.26704025,
2040,62.50700378,
2039,62.39284897,
2038,62.57545853,
2037,62.5099411,
2036,62.49554062,
2035,62.64392853,
2034,62.70317459,
2033,62.77005768,
2032,62.86523438,
2031,63.02373886,
2030,62.9859848,
2029,63.08651733,
2028,63.13320923,
2027,63.37158203,
2026,63.31513596,
2025,63.38105011,
2024,63.54469681,
2023,63.63424683,
2022,63.68203735,
2021,63.79894638,
2020,63.93448257,
2019,64.06653595,
2018,64.0907135,
2017,64.2175827,
2016,64.260849,
2015,64.33610535,
2014,64.41978455,
2013,64.56326294,
2012,64.60370636,
2011,64.63910675,
2010,64.72748566,
2009,64.8356781,
2008,64.84623718,
2007,64.92147064,
2006,64.92061615,
2005,65.03826141,
2004,64.98535919,
2003,64.94623566,
2002,65.13516998,
2001,65.09776306,
2000,65.07004547,
1999,65.04262543,
1998,65.01603699,
1997,65.07984924,
1996,65.03213501,
1995,65.09281921,
1994,65.02403259,
1993,65.01732635,
1992,65.01010132,
1991,64.92744446,
1990,64.86096191,
1989,64.82497406,
1988,64.83886719,
1987,64.68593597,
1986,64.63455963,
1985,64.58227539,
1984,64.44692993,
1983,64.3673172,
1982,64.19635773,
1981,64.19929504,
1980,63.94889832,
1979,63.88738632,
1978,63.78961182,
1977,63.69254684,
1976,63.57691956,
1975,63.3620491,
1974,63.23551559,
1973,63.02577209,
1972,62.89237213,
1971,62.66661835,
1970,62.54444885,
1969,62.31916428,
1968,62.04247284,
1967,61.82170105,
1966,61.63961411,
1965,61.40515137,
1964,61.19114685,
1963,60.99652481,
1962,60.76043701,
1961,60.47241211,
1960,60.22618484,
1959,59.96346283,
1958,59.68491364,
1957,59.48255157,
1956,59.20972824,
1955,58.85167694,
1954,58.53800964,
1953,58.24800873,
1952,57.870121,
1951,57.60943985,
1950,57.28359985,
1949,56.86444092,
1948,56.60631561,
1947,56.24604797,
1946,55.88158417,
1945,55.44244003,
1944,55.09955215,
1943,54.66313171,
1942,54.34170532,
1941,53.99888229,
1940,53.48838425,
1939,53.19937515,
1938,52.67378616,
1937,52.34542465,
1936,51.80785751,
1935,51.4745636,
1934,50.94244385,
1933,50.42688751,
1932,50.00108337,
1931,49.46061325,
1930,48.98173141,
1929,48.44402313,
1928,47.95666504,
1927,47.36026001,
1926,46.72069168,
1925,46.21062469,
1924,45.65604019,
1923,45.03966904,
1922,44.42062759,
1921,43.82346725,
1920,43.17712402,
1919,42.61091232,
1918,42.01799774,
1917,41.45755386,
1916,40.9203186,
1915,40.54776001,
1914,40.1924324,
1913,39.86791229,
1912,39.71227264,
1911,39.46586609,
1910,39.42184448,
1909,39.4608078,
1908,39.63423538,
1907,39.82590103,
1906,40.14834595,
1905,40.6655159,
1904,41.17321777,
1903,41.75617218,
1902,42.49084473,
1901,43.25902939,
1900,44.12854004,
1899,45.14542389,
1898,46.06701279,
1897,47.08250809,
1896,47.97940063,
1895,49.12755966,
1894,50.05762482,
1893,51.00514221,
1892,52.11021423,
1891,52.96269226,
1890,53.89193726,
1889,54.79159927,
1888,55.59455109,
1887,56.32827377,
1886,57.06998825,
1885,57.77622604,
1884,58.4031601,
1883,58.99724197,
1882,59.54954529,
1881,60.05908203,
1880,60.41314697,
1879,60.86794281,
1878,61.21800995,
1877,61.49302673,
1876,61.938797,
1875,62.16175461,
1874,62.39482117,
1873,62.6150856,
1872,62.69963455,
1871,62.84823608,
1870,63.00001144,
1869,63.1425972,
1868,63.07986832,
1867,63.23487091,
1866,63.31071854,
1865,63.29036331,
1864,63.33439255,
1863,63.32331467,
1862,63.43848801,
1861,63.27801895,
1860,63.29944229,
1859,63.25259781,
1858,63.19060516,
1857,63.0182724,
1856,63.15958023,
1855,63.01690292,
1854,62.92605591,
1853,62.8384285,
1852,62.78510284,
1851,62.6958847,
1850,62.54728317,
1849,62.41766357,
1848,62.29212952,
1847,62.19223022,
1846,62.09930801,
1845,61.85891724,
1844,61.80406189,
1843,61.59133911,
1842,61.43545532,
1841,61.25354767,
1840,61.08379364,
1839,60.94709015,
1838,60.78475571,
1837,60.60087204,
1836,60.36158752,
1835,60.14813614,
1834,59.99812317,
1833,59.75130081,
1832,59.67812347,
1831,59.45589066,
1830,59.22608948,
1829,59.0148468,
1828,58.82481384,
1827,58.6059761,
1826,58.49318695,
1825,58.2452774,
1824,58.0302887,
1823,57.78090286,
1822,57.57981491,
1821,57.41501999,
1820,57.20991516,
1819,56.95252991,
1818,56.8061409,
1817,56.53747177,
1816,56.27419281,
1815,56.02245331,
1814,55.89433289,
1813,55.60018539,
1812,55.37171936,
1811,55.13954926,
1810,54.91033936,
1809,54.71235657,
1808,54.48755646,
1807,54.27583313,
1806,54.03672409,
1805,53.82884598,
1804,53.64170837,
1803,53.43719101,
1802,53.21582031,
1801,53.03714752,
1800,52.82598114,
1799,52.67484283,
1798,52.53267288,
1797,52.35446548,
1796,52.24499512,
1795,52.05033493,
1794,51.91701126,
1793,51.7843895,
1792,51.65921021,
1791,51.54994583,
1790,51.51766586,
1789,51.33055878,
1788,51.26595306,
1787,51.12242889,
1786,51.05115128,
1785,50.98651505,
1784,50.87667847,
1783,50.79816437,
1782,50.70856094,
1781,50.66831589,
1780,50.55566406,
1779,50.41545105,
1778,50.28602982,
1777,50.2371788,
1776,50.12886047,
1775,49.99038315,
1774,49.80255508,
1773,49.70183563,
1772,49.55504227,
1771,49.37765884,
1770,49.26222992,
1769,49.05179596,
1768,48.86745834,
1767,48.61717987,
1766,48.41891479,
1765,48.17373276,
1764,47.95874023,
1763,47.6717186,
1762,47.39825439,
1761,47.13955688,
1760,46.80305862,
1759,46.47065353,
1758,46.26290512,
1757,45.92451859,
1756,45.57208252,
1755,45.29280853,
1754,45.08593369,
1753,44.69272614,
1752,44.403759,
1751,44.08112335,
1750,43.83007813,
1749,43.51296997,
1748,43.26327515,
1747,42.95828247,
1746,42.71598434,
1745,42.42189407,
1744,42.07380295,
1743,41.85261536,
1742,41.53007889,
1741,41.22883224,
1740,40.90403748,
1739,40.53740692,
1738,40.15490341,
1737,39.80083847,
1736,39.43427658,
1735,39.04280853,
1734,38.56607437,
1733,38.12855911,
1732,37.70092773,
1731,37.22422028,
1730,36.74997711,
1729,36.39707947,
1728,35.81557083,
1727,35.41040039,
1726,35.06695175,
1725,34.72109604,
1724,34.42986298,
1723,34.14097214,
1722,33.98333359,
1721,33.85586166,
1720,33.80247879,
1719,33.80326843,
1718,33.90723038,
1717,33.99108505,
1716,34.29615402,
1715,34.46496582,
1714,34.73762131,
1713,35.11252975,
1712,35.54695892,
1711,36.03138733,
1710,36.47604752,
1709,36.93024826,
1708,37.50990677,
1707,37.94595337,
1706,38.59599686,
1705,39.08223724,
1704,39.69028854,
1703,40.28800964,
1702,40.97260666,
1701,41.47167206,
1700,42.14316177,
1699,42.81182098,
1698,43.40751266,
1697,44.06075287,
1696,44.62599945,
1695,45.36972427,
1694,45.98855209,
1693,46.57295609,
1692,47.09628677,
1691,47.79125977,
1690,48.28549194,
1689,48.83015442,
1688,49.48721695,
1687,49.86677933,
1686,50.38518143,
1685,50.90519333,
1684,51.42033768,
1683,51.92378235,
1682,52.51552582,
1681,53.02707672,
1680,53.59967422,
1679,54.34145355,
1678,55.0200119,
1677,55.85051727,
1676,56.68026352,
1675,57.56167603,
1674,58.65405655,
1673,59.63650513,
1672,60.72294235,
1671,62.03507233,
1670,63.14583969,
1669,64.37090302,
1668,65.7027359,
1667,66.89588928,
1666,68.1513443,
1665,69.30828094,
1664,70.58031464,
1663,71.66189575,
1662,72.6973114,
1661,73.83210754,
1660,74.69007111,
1659,75.64028168,
1658,76.46731567,
1657,77.17784882,
1656,77.878685,
1655,78.43307495,
1654,79.02680206,
1653,79.4997406,
1652,80.06885529,
1651,80.37675476,
1650,80.73408508,
1649,81.00382996,
1648,81.32684326,
1647,81.53077698,
1646,81.73675537,
1645,81.85764313,
1644,81.97409058,
1643,82.03553772,
1642,82.11003876,
1641,81.96935272,
1640,81.96294403,
1639,81.91253662,
1638,81.71562195,
1637,81.66527557,
1636,81.4318161,
1635,81.20001221,
1634,81.14328003,
1633,80.96559906,
1632,80.8875885,
1631,80.81864929,
1630,80.79608917,
1629,80.78925323,
1628,80.95966339,
1627,81.09785461,
1626,81.36199951,
1625,81.62426758,
1624,81.89591217,
1623,82.26108551,
1622,82.60417938,
1621,82.96902466,
1620,83.41334534,
1619,83.70764923,
1618,84.04637909,
1617,84.41629791,
1616,84.72854614,
1615,85.08444214,
1614,85.28287506,
1613,85.56834412,
1612,85.77093506,
1611,85.98369598,
1610,86.15545654,
1609,86.35362244,
1608,86.4274292,
1607,86.50440216,
1606,86.58558655,
1605,86.70772552,
1604,86.78384399,
1603,86.83652496,
1602,86.88358307,
1601,87.01686096,
1600,86.98166656,
1599,87.06614685,
1598,87.09411621,
1597,87.19068909,
1596,87.15568542,
1595,87.21339417,
1594,87.27187347,
1593,87.2694397,
1592,87.34189606,
1591,87.37821198,
1590,87.35457611,
1589,87.37430573,
1588,87.39538574,
1587,87.44045258,
1586,87.47954559,
1585,87.44425201,
1584,87.48493195,
1583,87.45640564,
1582,87.50122833,
1581,87.46962738,
1580,87.48149109,
1579,87.49829865,
1578,87.43208313,
1577,87.47399902,
1576,87.47668457,
1575,87.47389221,
1574,87.49034119,
1573,87.44843292,
1572,87.44869995,
1571,87.39641571,
1570,87.47088623,
1569,87.43013,
1568,87.43976593,
1567,87.39810944,
1566,87.45252228,
1565,87.42386627,
1564,87.37812805,
1563,87.39739227,
1562,87.3373642,
1561,87.30552673,
1560,87.36367798,
1559,87.3351059,
1558,87.32002258,
1557,87.24456024,
1556,87.13329315,
1555,87.26068115,
1554,87.19314575,
1553,87.14710999,
1552,87.16149139,
1551,87.13824463,
1550,87.13578033,
1549,87.16764832,
1548,87.09724426,
1547,87.10857391,
1546,87.11392212,
1545,87.11100769,
1544,87.08436584,
1543,87.11261749,
1542,87.09288788,
1541,87.07334137,
1540,87.14894867,
1539,87.11937714,
1538,87.14472961,
1537,87.16362762,
1536,87.09954834,
1535,87.06515503,
1534,87.10005188,
1533,87.08091736,
1532,87.1103363,
1531,87.07933807,
1530,87.07578278,
1529,87.10372162,
1528,87.03285217,
1527,87.05168152,
1526,87.09436798,
1525,87.01856995,
1524,86.97349548,
1523,86.99977875,
1522,86.90674591,
1521,86.86846161,
1520,86.8879776,
1519,86.87026978,
1518,86.78015137,
1517,86.77720642,
1516,86.75669861,
1515,86.68138885,
1514,86.70418549,
1513,86.56278992,
1512,86.50854492,
1511,86.46989441,
1510,86.39128876,
1509,86.33437347,
1508,86.29476166,
1507,86.18878937,
1506,86.17066956,
1505,86.13843536,
1504,86.03085327,
1503,85.91526794,
1502,85.90007019,
1501,85.77392578,
1500,85.68880463,
1499,85.70915222,
1498,85.54218292,
1497,85.41728973,
1496,85.42266846,
1495,85.25228882,
1494,85.21955109,
1493,85.13285065,
1492,85.07955933,
1491,84.90866852,
1490,84.79725647,
1489,84.71920776,
1488,84.63217926,
1487,84.47689056,
1486,84.42282104,
1485,84.35214996,
1484,84.1798172,
1483,84.11579895,
1482,83.97824097,
1481,83.81378937,
1480,83.83000183,
1479,83.6836853,
1478,83.57122803,
1477,83.34072876,
1476,83.20458221,
1475,83.0930481,
1474,82.90190125,
1473,82.74977112,
1472,82.55804443,
1471,82.40466309,
1470,82.24227905,
1469,81.95884705,
1468,81.83878326,
1467,81.66290283,
1466,81.54495239,
1465,81.46987915,
1464,81.26982117,
1463,81.20698547,
1462,81.06472778,
1461,80.95799255,
1460,80.84078979,
1459,80.76570129,
1458,80.69506836,
1457,80.58456421,
1456,80.52405548,
1455,80.33784485,
1454,80.24500275,
1453,80.1649704,
1452,79.98752594,
1451,79.80876923,
1450,79.66966248,
1449,79.45108032,
1448,79.29998016,
1447,79.21359253,
1446,78.96239471,
1445,78.73841095,
1444,78.50193787,
1443,78.33486176,
1442,78.11667633,
1441,77.87136078,
1440,77.63478088,
1439,77.43027496,
1438,77.1317215,
1437,76.88806915,
1436,76.65558624,
1435,76.43743896,
1434,76.16837311,
1433,75.93788147,
1432,75.65453339,
1431,75.43556213,
1430,75.20845795,
1429,74.98303986,
1428,74.73002625,
1427,74.50416565,
1426,74.31162262,
1425,74.07486725,
1424,73.91616821,
1423,73.77709961,
1422,73.57135773,
1421,73.47625732,
1420,73.29403687,
1419,73.25762939,
1418,73.12828064,
1417,73.01538849,
1416,72.94445038,
1415,72.9677124,
1414,72.94377899,
1413,72.95769501,
1412,73.01900482,
1411,73.13230896,
1410,73.23809814,
1409,73.38415527,
1408,73.6105957,
1407,73.83602905,
1406,74.07792664,
1405,74.3691864,
1404,74.66819,
1403,74.91628265,
1402,75.26148987,
1401,75.57287598,
1400,75.74699402,
1399,76.11417389,
1398,76.37363434,
1397,76.59600067,
1396,76.77427673,
1395,76.90869904,
1394,77.13352203,
1393,77.29695892,
1392,77.29621124,
1391,77.50536346,
1390,77.39481354,
1389,77.53147125,
1388,77.66257477,
1387,77.66853333,
1386,77.68615723,
1385,77.86354065,
1384,78.09959412,
1383,78.23162842,
1382,78.35784149,
1381,78.58637238,
1380,78.80143738,
1379,79.04837799,
1378,79.18075562,
1377,79.39039612,
1376,79.57289886,
1375,79.77888489,
1374,79.9339447,
1373,80.30506897,
1372,80.35427094,
1371,80.55828857,
1370,80.83922577,
1369,80.97393799,
1368,81.22870636,
1367,81.41505432,
1366,81.73590088,
1365,81.9773941,
1364,82.23529816,
1363,82.45613861,
1362,82.78269958,
1361,83.12671661,
1360,83.32568359,
1359,83.59648895,
1358,83.72730255,
1357,84.07244873,
1356,84.27832031,
1355,84.52507019,
1354,84.84149933,
1353,85.00515747,
1352,85.30944824,
1351,85.61680603,
1350,85.94200897,
1349,86.25888062,
1348,86.59119415,
1347,86.86536407,
1346,87.19826508,
1345,87.40132904,
1344,87.59868622,
1343,87.81841278,
1342,88.06925201,
1341,88.27560425,
1340,88.39183044,
1339,88.5396347,
1338,88.72690582,
1337,88.83004761,
1336,88.97993469,
1335,89.11037445,
1334,89.14602661,
1333,89.21676636,
1332,89.31005859,
1331,89.40357208,
1330,89.42697906,
1329,89.50956726,
1328,89.46513367,
1327,89.48921967,
1326,89.53030396,
1325,89.57311249,
1324,89.66173553,
1323,89.62914276,
1322,89.70500946,
1321,89.7297287,
1320,89.7618866,
1319,89.78105927,
1318,89.81073761,
1317,89.82312775,
1316,89.85604858,
1315,89.85798645,
1314,89.86517334,
1313,89.84300232,
1312,89.91351318,
1311,89.99777985,
1310,89.91570282,
1309,89.99064636,
1308,89.95018005,
1307,89.91594696,
1306,89.95926666,
1305,89.97041321,
1304,90.08061218,
1303,90.00705719,
1302,89.93524933,
1301,90.01320648,
1300,89.91871643,
1299,90.01125336,
1298,90.00312805,
1297,89.92935181,
1296,89.92635345,
1295,89.89627075,
1294,89.94313812,
1293,89.88517761,
1292,89.94633484,
1291,89.86434174,
1290,89.88226318,
1289,89.82341003,
1288,89.81785583,
1287,89.85942841,
1286,89.82034302,
1285,89.83591461,
1284,89.76587677,
1283,89.74370575,
1282,89.72122955,
1281,89.76452637,
1280,89.68118286,
1279,89.71411133,
1278,89.62931824,
1277,89.65991211,
1276,89.68444061,
1275,89.63845825,
1274,89.61946869,
1273,89.618927,
1272,89.65786743,
1271,89.52519226,
1270,89.50172424,
1269,89.53675842,
1268,89.55957794,
1267,89.42035675,
1266,89.34290314,
1265,89.39096832,
1264,89.36105347,
1263,89.29470062,
1262,89.24213409,
1261,89.147789,
1260,89.09270477,
1259,89.09523773,
1258,89.05545807,
1257,89.07769775,
1256,89.07568359,
1255,88.95620728,
1254,88.74359131,
1253,88.76794434,
1252,88.65374756,
1251,88.52855682,
1250,88.47231293,
1249,88.40715027,
1248,88.38376617,
1247,88.32668304,
1246,88.23123932,
1245,88.05885315,
1244,87.90815735,
1243,87.89776611,
1242,87.74810028,
1241,87.60057068,
1240,87.54489136,
1239,87.44941711,
1238,87.23582458,
1237,87.06781006,
1236,86.92551422,
1235,86.75526428,
1234,86.56099701,
1233,86.33131409,
1232,86.25939941,
1231,86.06983185,
1230,85.84459686,
1229,85.67329407,
1228,85.48722076,
1227,85.22185516,
1226,85.13430023,
1225,84.86669159,
1224,84.69392395,
1223,84.48432922,
1222,84.30365753,
1221,84.10171509,
1220,83.89730072,
1219,83.69896698,
1218,83.47006226,
1217,83.32765961,
1216,83.12763977,
1215,82.92985535,
1214,82.79252625,
1213,82.63428497,
1212,82.47884369,
1211,82.28513336,
1210,82.07924652,
1209,81.93442535,
1208,81.76163483,
1207,81.64898682,
1206,81.56256104,
1205,81.40109253,
1204,81.26165771,
1203,81.13287354,
1202,81.12626648,
1201,80.925354,
1200,80.74613953,
1199,80.70672607,
1198,80.58673859,
1197,80.48125458,
1196,80.42311096,
1195,80.26170349,
1194,80.21533966,
1193,80.05228424,
1192,79.92655945,
1191,79.95189667,
1190,79.78974915,
1189,79.7851944,
1188,79.67933655,
1187,79.58557892,
1186,79.61060333,
1185,79.54949951,
1184,79.49256897,
1183,79.5918045,
1182,79.57739258,
1181,79.61767578,
1180,79.66338348,
1179,79.86181641,
1178,79.89627075,
1177,80.02442932,
1176,80.10601044,
1175,80.30404663,
1174,80.50701904,
1173,80.76728821,
1172,80.92337036,
1171,81.1988678,
1170,81.35648346,
1169,81.67178345,
1168,81.91890717,
1167,82.08912659,
1166,82.37102509,
1165,82.57424164,
1164,82.85687256,
1163,83.0769043,
1162,83.31351471,
1161,83.62178802,
1160,83.76524353,
1159,84.03253937,
1158,84.20648193,
1157,84.44415283,
1156,84.7127533,
1155,84.86607361,
1154,85.07958984,
1153,85.21348572,
1152,85.44189453,
1151,85.65470886,
1150,85.75895691,
1149,86.09475708,
1148,86.28827667,
1147,86.52292633,
1146,86.6391983,
1145,86.83100128,
1144,87.07867432,
1143,87.25162506,
1142,87.38234711,
1141,87.56233215,
1140,87.77008057,
1139,87.84018707,
1138,87.99958801,
1137,88.1938324,
1136,88.29721832,
1135,88.44039154,
1134,88.53894043,
1133,88.71682739,
1132,88.88080597,
1131,88.93926239,
1130,89.06622314,
1129,89.12613678,
1128,89.28695679,
1127,89.42797089,
1126,89.51103973,
1125,89.5534668,
1124,89.70291138,
1123,89.79277802,
1122,89.85371399,
1121,89.95727539,
1120,90.04654694,
1119,90.05428314,
1118,90.05645752,
1117,90.11264801,
1116,90.20884705,
1115,90.2690506,
1114,90.30940247,
1113,90.33150482,
1112,90.40314484,
1111,90.44441223,
1110,90.39684296,
1109,90.5109787,
1108,90.47654724,
1107,90.49219513,
1106,90.58534241,
1105,90.5535202,
1104,90.66803741,
1103,90.60858154,
1102,90.64336395,
1101,90.54405975,
1100,90.66902924,
1099,90.62414551,
1098,90.64675903,
1097,90.66934204,
1096,90.72544861,
1095,90.6186676,
1094,90.62911224,
1093,90.69967651,
1092,90.6315918,
1091,90.70232391,
1090,90.70040131,
1089,90.65182495,
1088,90.73033905,
1087,90.6809082,
1086,90.73563385,
1085,90.62741089,
1084,90.62430573,
1083,90.6557312,
1082,90.61004639,
1081,90.65894318,
1080,90.64777374,
1079,90.57125854,
1078,90.64363098,
1077,90.66997528,
1076,90.62239838,
1075,90.62865448,
1074,90.6326828,
1073,90.58583069,
1072,90.58032227,
1071,90.5951767,
1070,90.55458069,
1069,90.48231506,
1068,90.57167816,
1067,90.51123047,
1066,90.46595764,
1065,90.56757355,
1064,90.47466278,
1063,90.40350342,
1062,90.43869019,
1061,90.38102722,
1060,90.37786102,
1059,90.39250946,
1058,90.3825531,
1057,90.35469055,
1056,90.31040192,
1055,90.37014771,
1054,90.32566071,
1053,90.37202454,
1052,90.28018951,
1051,90.30305481,
1050,90.31147003,
1049,90.25868225,
1048,90.31819916,
1047,90.2477417,
1046,90.11526489,
1045,90.23058319,
1044,90.11354828,
1043,90.10445404,
1042,90.15092468,
1041,90.0885849,
1040,90.18241119,
1039,90.11991119,
1038,90.19816589,
1037,90.05919647,
1036,90.10896301,
1035,90.12060547,
1034,90.10393524,
1033,90.05123138,
1032,90.08003998,
1031,90.12114716,
1030,90.00327301,
1029,90.04506683,
1028,90.06254578,
1027,90.06570435,
1026,90.02458954,
1025,90.0612793,
1024,90.08241272,
1023,90.11128998,
1022,90.05954742,
1021,90.08879089,
1020,90.11670685,
1019,90.08207703,
1018,89.88082123,
1017,90.09274292,
1016,90.10502625,
1015,90.10645294,
1014,90.05580902,
1013,90.05993652,
1012,90.12039185,
1011,90.11856079,
1010,90.13024139,
1009,90.10951233,
1008,90.14665985,
1007,90.17222595,
1006,90.13314056,
1005,90.21362305,
1004,90.13500214,
1003,90.20653534,
1002,90.12120819,
1001,90.21389771,
1000,90.17528534,
999,90.22087097,
998,90.17957306,
997,90.32131195,
996,90.24450684,
995,90.3086319,
994,90.35936737,
993,90.22975159,
992,90.24650574,
991,90.3364563,
990,90.34975433,
989,90.31860352,
988,90.26043701,
987,90.26416779,
986,90.21318054,
985,90.26654053,
984,90.25509644,
983,90.31092834,
982,90.40872955,
981,90.37313843,
980,90.36108398,
979,90.34335327,
978,90.3560791,
977,90.32809448,
976,90.43766785,
975,90.29811859,
974,90.39889526,
973,90.30000305,
972,90.3345871,
971,90.28058624,
970,90.3691864,
969,90.26738739,
968,90.37714386,
967,90.40978241,
966,90.40348053,
965,90.37969208,
964,90.33966827,
963,90.34604645,
962,90.42098999,
961,90.34342194,
960,90.31951141,
959,90.36915588,
958,90.40821075,
957,90.35332489,
956,90.33397675,
955,90.15962219,
954,90.2723465,
953,90.27246857,
952,90.28288269,
951,90.26772308,
950,90.26044464,
949,90.26721954,
948,90.25727844,
947,90.15048218,
946,90.16073608,
945,90.15997314,
944,90.13659668,
943,90.02043915,
942,90.03343201,
941,90.0411377,
940,89.99144745,
939,90.02210236,
938,89.84976196,
937,89.92837524,
936,89.91760254,
935,89.8296814,
934,89.87104034,
933,89.82337952,
932,89.82661438,
931,89.85174561,
930,89.74205017,
929,89.66428375,
928,89.69562531,
927,89.73126221,
926,89.64459991,
925,89.64076233,
924,89.56772614,
923,89.56452942,
922,89.5825119,
921,89.53782654,
920,89.42733765,
919,89.47884369,
918,89.46488953,
917,89.42633057,
916,89.40310669,
915,89.24839783,
914,89.23358154,
913,89.22667694,
912,89.22967529,
911,89.19923401,
910,89.17076111,
909,89.12467957,
908,89.07087708,
907,89.12341309,
906,88.95908356,
905,89.09856415,
904,89.00076294,
903,88.95079803,
902,88.78975677,
901,88.84357452,
900,88.77044678,
899,88.89791107,
898,88.73129272,
897,88.79859161,
896,88.7355423,
895,88.60890961,
894,88.75263977,
893,88.89134979,
892,88.72224426,
891,88.79383087,
890,88.77204895,
889,88.82289886,
888,88.87364197,
887,88.87582397,
886,88.90898132,
885,88.8780899,
884,88.97724152,
883,88.8482132,
882,88.85467529,
881,88.94594574,
880,88.92597961,
879,88.90946198,
878,89.07485962,
877,88.99766541,
876,89.03861237,
875,89.13542175,
874,89.04925537,
873,89.0533371,
872,89.17546844,
871,89.07711029,
870,89.20478058,
869,89.07951355,
868,89.09442902,
867,89.29615021,
866,89.20746613,
865,89.22542572,
864,89.14492798,
863,89.35056305,
862,89.26124573,
861,89.19875336,
860,89.29673767,
859,89.358078,
858,89.25765991,
857,89.33667755,
856,89.31142426,
855,89.43293762,
854,89.20006561,
853,89.30153656,
852,89.28787231,
851,89.30943298,
850,89.36388397,
849,89.3001709,
848,89.32422638,
847,89.15823364,
846,89.41709137,
845,89.26570129,
844,89.27973175,
843,89.43783569,
842,89.32006073,
841,89.49054718,
840,89.39852905,
839,89.21234894,
838,89.38760376,
837,89.28182983,
836,89.206604,
835,89.35074615,
834,89.66466522,
833,89.46202087,
832,89.31319427,
831,89.36117554,
830,89.46403503,
829,89.34853363,
828,89.54027557,
827,89.38157654,
826,89.44316864,
825,89.55998993,
824,89.16300201,
823,89.38819122,
822,89.25356293,
821,89.57272339,
820,89.74214935,
819,89.50749969,
818,89.21451569,
817,89.48886108,
816,89.37793732,
815,89.52932739,
814,89.34001923,
813,89.3844986,
812,89.29003143,
811,89.65213013,
810,89.92289734,
809,89.26378632,
808,89.37012482,
807,89.51654053,
806,89.43437958,
805,89.0905838,
804,89.07850647,
803,89.69895172,
802,88.79840088,
801,89.41017151,
800,89.19967651,
799,89.26850128,
798,91.29168701,
797,91.36943054,
796,91.16135406,
795,91.35487366,
794,91.36766052,
793,91.31485748,
792,91.23544312,
791,91.2447052,
790,91.30197906,
789,91.23839569,
788,91.19486237,
787,91.16896057,
786,91.18801117,
785,91.18876648,
784,91.04930115,
783,91.25885773,
782,91.13976288,
781,91.06759644,
780,91.15081024,
779,91.04612732,
778,91.19057465,
777,91.22770691,
776,91.06626129,
775,91.22275543,
774,91.33309937,
773,91.12503815,
772,91.10247803,
771,90.97332001,
770,90.97492218,
769,91.04324341,
768,90.96672058,
767,91.07493591,
766,90.94907379,
765,90.97045135,
764,90.81234741,
763,90.90663147,
762,90.739151,
761,90.72792053,
760,90.89759827,
759,90.73906708,
758,90.89317322,
757,90.62569427,
756,90.71363068,
755,90.70528412,
754,90.66516113,
753,90.65798187,
752,90.53582764,
751,90.54512024,
750,90.41697693,
749,90.53572845,
748,90.44647217,
747,90.38442993,
746,90.44090271,
745,90.33792114,
744,90.37953949,
743,90.27024841,
742,90.05302429,
741,90.13597107,
740,90.07604218,
739,90.07372284,
738,90.0142746,
737,89.99777222,
736,89.7786026,
735,89.95207214,
734,89.66513824,
733,89.72267914,
732,89.64395905,
731,89.55684662,
730,89.32427979,
729,89.3627243,
728,89.24030304,
727,89.13799286,
726,89.17398834,
725,89.070755,
724,88.92900085,
723,88.92617798,
722,88.59004211,
721,88.60264587,
720,88.4550705,
719,88.41407776,
718,88.27542877,
717,88.10033417,
716,87.88011932,
715,87.82223511,
714,87.61920929,
713,87.37033844,
712,87.15704346,
711,86.96134949,
710,86.7638092,
709,86.60902405,
708,86.27933502,
707,86.04750824,
706,85.93222046,
705,85.57874298,
704,85.25151062,
703,84.95204163,
702,84.76520538,
701,84.36432648,
700,83.96430969,
699,83.56798553,
698,83.23968506,
697,82.88410187,
696,82.30992889,
695,81.93062592,
694,81.44409943,
693,80.99652863,
692,80.29085541,
691,79.81699371,
690,79.15440369,
689,78.44652557,
688,77.7594223,
687,77.05220032,
686,76.38527679,
685,75.50559998,
684,74.60585785,
683,73.76547241,
682,72.84936523,
681,71.84339142,
680,70.76305389,
679,69.70790863,
678,68.54768372,
677,67.36743164,
676,66.10980225,
675,64.85100555,
674,63.42634583,
673,62.09092712,
672,60.55615997,
671,59.06702805,
670,57.50806808,
669,55.94984818,
668,54.32508469,
667,52.64447784,
666,50.96627426,
665,49.29993057,
664,47.62164688,
663,45.96142578,
662,44.27674484,
661,42.73627853,
660,41.1491394,
659,39.59015274,
658,38.16018295,
657,36.73386002,
656,35.40696716,
655,34.14517593,
654,32.94683456,
653,31.79419899,
652,30.72738647,
651,29.72020149,
650,28.77173805,
649,27.87462807,
648,27.02395248,
647,26.19120407,
646,25.42064857,
645,24.6423912,
644,23.89891815,
643,23.16132355,
642,22.41485977,
641,21.67434883,
640,20.95681953,
639,20.24031639,
638,19.51008987,
637,18.77637291,
636,18.06665039,
635,17.3538723,
634,16.64299774,
633,15.98228359,
632,15.31534386,
631,14.67884064,
630,14.07056332,
629,13.50134182,
628,12.97188568,
627,12.46578407,
626,12.02006531,
625,11.60124969,
624,11.2402153,
623,10.87276077,
622,10.58003616,
621,10.29141712,
620,10.0275135,
619,9.793416977,
618,9.557499886,
617,9.353742599,
616,9.159769058,
615,8.961055756,
614,8.770910263,
613,8.593919754,
612,8.396373749,
611,8.210609436,
610,8.022154808,
609,7.841513157,
608,7.653567791,
607,7.47192955,
606,7.303266048,
605,7.12998867,
604,6.961547375,
603,6.800695419,
602,6.648715019,
601,6.510113239,
600,6.377016544,
599,6.242863655,
598,6.135444164,
597,6.031022549,
596,5.924788952,
595,5.842433453,
594,5.753380299,
593,5.664276123,
592,5.58840847,
591,5.51588726,
590,5.441103458,
589,5.371331692,
588,5.288266659,
587,5.213249683,
586,5.137404442,
585,5.052564621,
584,4.977869034,
583,4.885189533,
582,4.803012848,
581,4.713122845,
580,4.631691933,
579,4.546619415,
578,4.451076508,
577,4.359987259,
576,4.28631258,
575,4.196075439,
574,4.108406067,
573,4.027518272,
572,3.943455696,
571,3.840022564,
570,3.755114555,
569,3.657949448,
568,3.571599007,
567,3.467786312,
566,3.359141588,
565,3.260622263,
564,3.164256811,
563,3.053657293,
562,2.949412823,
561,2.834878206,
560,2.72350955,
559,2.619138241,
558,2.509434938,
557,2.406374454,
556,2.303751707,
555,2.20757246,
554,2.100277901,
553,2.007580996,
552,1.904058099,
551,1.820545793,
550,1.725036263,
549,1.629916549,
548,1.54869318,
547,1.467041612,
546,1.379915118,
545,1.309204936,
544,1.230751038,
543,1.15946126,
542,1.096487403,
541,1.037177086,
540,0.9779661894,
539,0.9297503233,
538,0.8795074224,
537,0.831805706,
536,0.7920624614,
535,0.7530226111,
534,0.7188237906,
533,0.6896136403,
532,0.6591650844,
531,0.6361843348,
530,0.6109685898,
529,0.5928264856,
528,0.5757514238,
527,0.5596930385,
526,0.5489512086,
525,0.5401403308,
524,0.5313581824,
523,0.519461453,
522,0.5155277252,
521,0.5091481209,
520,0.5003100634,
519,0.4950895905,
518,0.4962713122,
517,0.4916933477,
516,0.4878101349,
515,0.4862623215,
514,0.4855216444,
513,0.4836264849,
512,0.4830862284,
511,0.4796927273,
510,0.4822029173,
509,0.4798483551,
508,0.4748306274,
507,0.471989125,
506,0.4783972204,
505,0.4764673412,
504,0.4725401402,
503,0.4732100368,
502,0.4726583064,
501,0.4714169204,
500,0.4645730853,
499,0.4664063454,
498,0.467769295,
497,0.4688802958,
496,0.4693005681,
495,0.466473043,
494,0.4619351029,
493,0.464856118,
492,0.4622491896,
491,0.4615630507,
490,0.4611684084,
489,0.4587017596,
488,0.4578833878,
487,0.4614795148,
486,0.4612855613,
485,0.4617286026,
484,0.461230427,
483,0.453987658,
482,0.4581418037,
481,0.4560880363,
480,0.4526698589,
479,0.4541687667,
478,0.4550243318,
477,0.4537212253,
476,0.4513439834,
475,0.4504816234,
474,0.4502148926,
473,0.4505016506,
472,0.4534184039,
471,0.4506694674,
470,0.4504679739,
469,0.4473619759,
468,0.4488380551,
467,0.4482745528,
466,0.450248003,
465,0.4484110177,
464,0.4478844404,
463,0.4467831552,
462,0.4440617263,
461,0.4438741207,
460,0.4460627735,
459,0.4420751631,
458,0.442222029,
457,0.4415085912,
456,0.4409769475,
455,0.4447157383,
454,0.4401436448,
453,0.4390416145,
452,0.4395608306,
451,0.4377658367,
450,0.4373413026,
449,0.4398653209,
448,0.4386281073,
447,0.4354197383,
446,0.4335478544,
445,0.4356016815,
444,0.435051322,
443,0.4297317863,
442,0.4328118265,
441,0.4343326092,
440,0.4297786057,
439,0.4278597832,
438,0.4299772978,
437,0.4336768389,
436,0.4318900406,
435,0.4365054071,
434,0.4260967374,
433,0.4303114414,
432,0.4277439415,
431,0.4263750315,
430,0.4279329777,
429,0.4285775721,
428,0.427475214,
427,0.4246051013,
426,0.4278895557,
425,0.4280081093,
424,0.4254975319,
423,0.4236750305,
422,0.4236017764,
421,0.4198307693,
420,0.4216923416,
419,0.4162237942,
418,0.4223813713,
417,0.4164961278,
416,0.4226405621,
415,0.4151580334,
414,0.4156033397,
413,0.4125534892,
412,0.4139758646,
411,0.4146736562,
410,0.4085999131,
409,0.415712744,
408,0.4123931229,
407,0.4077168107,
406,0.4140072167,
405,0.4080970287,
404,0.406471312,
403,0.4048361778,
402,0.4073521495,
401,0.4039048553,
400,0.4090142846,
399,0.4057970047,
398,0.3984675705,
397,0.3984842002,
396,0.3970279694,
395,0.3985625803,
394,0.3949836791,
393,0.3989285827,
392,0.3943321407,
391,0.395463407,
390,0.3935369551,
389,0.3903903961,
388,0.3878962696,
387,0.383461833,
386,0.3829464018,
385,0.3817616999,
384,0.387337625,
383,0.3863750398,
382,0.3808859289,
381,0.3800596595,
380,0.379729867,
379,0.3765963912,
378,0.3850414753,
377,0.3774901927,
376,0.3770668209,
375,0.37473768,
374,0.3699490726,
373,0.3678045571,
372,0.3633196056,
371,0.3689698875,
370,0.3671043217,
369,0.3672163785,
368,0.369217813,
367,0.3725251555,
366,0.36515975,
365,0.3685560524,
364,0.3680755198,
363,0.3646599948,
362,0.3574504554,
361,0.362523526,
360,0.3559846878,
359,0.3551384807,
358,0.3546971679,
357,0.3600459099,
356,0.3472136557,
355,0.3561424911,
354,0.3485015333,
353,0.3649623692,
352,0.3604910076,
351,0.3513155878,
350,0.3572203517,
349,0.3592044711,
348,0.2757624984,
347,0.2719375193,
346,0.2703454196,
345,0.2741197944,
344,0.2732645571,
343,0.2740885913,
342,0.2682511806,
341,0.2520801127,
340,0.292181462,
339,0.3100122511,
338,0.2711414993,
337,0.2624356747,
336,0.2651885748,
335,0.2643013,
334,0.2663230896,
333,0.2720105946,
332,0.2563173175,
331,0.2488197237,
330,0.2771950066,
329,0.2641339898,
328,0.2677586079,
327,0.2646215856,
326,0.2690223753,
325,0.2638879716,
324,0.2605846524,
323,0.2725527287,
322,0.2551772892,
321,0.2521817088,
320,0.2523609996,
319,0.2483451515,
318,0.2438346893,
317,0.2603370845,
316,0.2532598376,
315,0.2583107948,
314,0.2515636981,
313,0.2514579296,
312,0.2584669292,
311,0.2288640887,
310,0.242022559,
309,0.231903702,
308,0.2522922754,
307,0.2358372062,
306,0.2494293898,
305,0.2602480352,
304,0.2417085022,
303,0.2559907734,
302,0.2415611148,
301,0.2352794707,
300,0.2407345474,
299,0.2444453537,
298,0.2475678474,
297,0.245868817,
296,0.2388022095,
295,0.2370914221,
294,0.2292834967,
293,0.2399823219,
292,0.2335251272,
291,0.2121001184,
290,0.2288446277,
289,0.2367908657,
288,0.2292307317,
287,0.2386159897,
286,0.2101126313,
285,0.2443292886,
284,0.2318512201,
283,0.2132632285,
282,0.231332466,
281,0.2356227487,
280,0.2316722572,
279,0.2370154709,
278,0.2301099449,
277,0.2184540331,
276,0.2512250543,
275,0.2227902412,
274,0.235000968,
273,0.2266933173,
272,0.2343618572,
271,0.2203251719,
270,0.2315816432,
269,0.2253021598,
268,0.2216743827,
267,0.2291391194,
266,0.2401520759,
265,0.2211002856,
264,0.2415654063,
263,0.2476519197,
262,0.2295271456,
261,0.2334753275,
260,0.2345397621,
259,0.2574070394,
258,0.2238118798,
257,0.239890039,
256,0.2377294749,
255,0.2393090874,
254,0.2455255687,
253,0.2471636981,
252,0.24238424,
251,0.244863838,
250,0.2387219816,

sample1,
sample1
Collection Time: 16.07.2019 10:25:01
Operator Name  :
Scan Software Version: 3.00(339)
Parameter List :
Instrument                        Cary 500
Instrument Version                8.01
Start (nm)                        2500.000
Stop (nm)                         250.000
X Mode                            Nanometers
Y Mode                            %T
Independent NIR                   On
Measurement Mode                  Auto
UV-Vis Scan Rate (nm/min)         361.446
UV-Vis Data Interval (nm)         1.00
UV-Vis Ave. Time (sec)            0.166
UV-Vis SBW (nm)                   2.000
NIR Scan Rate (nm/min)            361.446
NIR Data Interval (nm)            1.00
NIR Ave. Time (sec)               0.166
NIR Energy                        3.00
Slit Height                       Reduced
Beam Mode                         Double
Signal-to-noise Mode              Off
UV Source                         On
Vis Source                        On
Third Source                      Off
Source Changeover (nm)            350.00
Detector Changeover (nm)          800.00
Grating Changeover (nm)           800.00
Baseline Correction               On
Baseline Type                     Zero/baseline correction
Baseline File Name                C:\Data\Roland\Chrono\Kantenfilter-Sport.BSW
Baseline Std Ref File Name
Cycle Mode                        Off
Comments
Method Log     :
Method Name    : C:\Data\Methods\R tot ulbricht.MSW
Date/Time stamp: 11.07.2003 10:02:27
Method Modifications:
Opened C:\Data\Methods\R tot ulbricht.MSW
Baseline file Changed: 16.07.2019 08:14:02, Old:C:\Varian\Cary WinUV\Marc\Methods\R tot ulbricht.MSW, New:C:\Data\Methods\R tot ulbricht.MSW
Y mode Changed: 16.07.2019 08:14:58, Old:%R, New:%T
Baseline file Changed: 16.07.2019 08:15:24, Old:C:\Data\Methods\R tot ulbricht.MSW, New:
Saved as C:\Data\Roland\Chrono\Kantenfilter-Sport.BSW
Baseline file Changed: 16.07.2019 10:22:30, Old:, New:C:\Data\Roland\Chrono\Kantenfilter-Sport.BSW
End Method Modifications
<SBW (nm)> , 2.00
<Energy> , 436.52
<Slit height> , Reduced
<Current Wavelength> , 248.000

